,Unnamed: 0,Tick Time,RTC Time,ECG,marker
0,0,0,2021-10-05 15:31:04.846,-0.1553853352864583,
1,1,4,2021-10-05 15:31:04.850,-0.3219763437906901,
2,2,8,2021-10-05 15:31:04.854,-0.1658439636230469,
3,3,12,2021-10-05 15:31:04.858,-0.2350203196207682,
4,4,16,2021-10-05 15:31:04.862,-0.2456283569335937,
5,5,20,2021-10-05 15:31:04.866,-0.1486619313557942,
6,6,24,2021-10-05 15:31:04.870,-0.3131612141927083,
7,7,28,2021-10-05 15:31:04.874,-0.164947509765625,
8,8,32,2021-10-05 15:31:04.878,-0.2357673645019531,
9,9,36,2021-10-05 15:31:04.882,-0.2496623992919922,
10,10,40,2021-10-05 15:31:04.886,-0.1528453826904297,
11,11,44,2021-10-05 15:31:04.890,-0.3118165334065755,
12,12,48,2021-10-05 15:31:04.894,-0.1603158315022786,
13,13,52,2021-10-05 15:31:04.898,-0.2300898234049479,
14,14,56,2021-10-05 15:31:04.902,-0.2393531799316406,
15,15,60,2021-10-05 15:31:04.906,-0.1328245798746745,
16,16,64,2021-10-05 15:31:04.910,-0.2910486857096354,
17,17,68,2021-10-05 15:31:04.914,-0.1416397094726562,
18,18,72,2021-10-05 15:31:04.918,-0.2190335591634115,
19,19,76,2021-10-05 15:31:04.922,-0.2341238657633463,
20,20,80,2021-10-05 15:31:04.926,-0.1283423105875651,
21,21,84,2021-10-05 15:31:04.930,-0.2913475036621094,
22,22,88,2021-10-05 15:31:04.934,-0.1513512929280599,
23,23,92,2021-10-05 15:31:04.938,-0.2523517608642578,
24,24,96,2021-10-05 15:31:04.942,-0.2852217356363932,
25,25,100,2021-10-05 15:31:04.946,-0.1961739857991536,
26,26,104,2021-10-05 15:31:04.950,-0.3593285878499349,
27,27,108,2021-10-05 15:31:04.954,-0.1870600382486979,
28,28,112,2021-10-05 15:31:04.958,-0.2420425415039062,
29,29,116,2021-10-05 15:31:04.962,-0.2383073170979818,
30,30,120,2021-10-05 15:31:04.966,-0.1352151234944661,
31,31,124,2021-10-05 15:31:04.970,-0.3041966756184896,
32,32,128,2021-10-05 15:31:04.974,-0.1580746968587239,
33,33,132,2021-10-05 15:31:04.978,-0.2353191375732422,
34,34,136,2021-10-05 15:31:04.982,-0.2377096811930338,
35,35,140,2021-10-05 15:31:04.986,-0.1346174875895182,
36,36,144,2021-10-05 15:31:04.990,-0.3266080220540365,
37,37,148,2021-10-05 15:31:04.994,-0.2061843872070312,
38,38,152,2021-10-05 15:31:04.998,-0.2929910024007162,
39,39,156,2021-10-05 15:31:05.002,-0.2239640553792318,
40,40,160,2021-10-05 15:31:05.006,0.0885995229085286,
41,41,164,2021-10-05 15:31:05.010,0.1800378163655599,
42,42,168,2021-10-05 15:31:05.014,0.4849815368652344,
43,43,172,2021-10-05 15:31:05.018,0.4543526967366537,
44,44,176,2021-10-05 15:31:05.022,0.236813227335612,
45,45,180,2021-10-05 15:31:05.026,-0.1770496368408203,
46,46,184,2021-10-05 15:31:05.030,-0.998500188191732,
47,47,188,2021-10-05 15:31:05.034,-1.3874117533365886,
48,48,192,2021-10-05 15:31:05.038,-1.4192358652750652,
49,49,196,2021-10-05 15:31:05.042,-0.9825134277343752,
50,50,200,2021-10-05 15:31:05.046,-0.3893597920735677,
51,51,204,2021-10-05 15:31:05.050,-0.2309862772623698,
52,52,208,2021-10-05 15:31:05.054,0.035559336344401,
53,53,212,2021-10-05 15:31:05.058,-0.0325711568196614,
54,54,216,2021-10-05 15:31:05.062,-0.078290303548177,
55,55,220,2021-10-05 15:31:05.066,-0.0001494089762369,
56,56,224,2021-10-05 15:31:05.070,-0.1661427815755208,
57,57,228,2021-10-05 15:31:05.074,-0.0041834513346354,
58,58,232,2021-10-05 15:31:05.078,-0.0803820292154948,
59,59,236,2021-10-05 15:31:05.082,-0.1129531860351562,
60,60,240,2021-10-05 15:31:05.086,-0.0224113464355468,
61,61,244,2021-10-05 15:31:05.090,-0.2061843872070312,
62,62,248,2021-10-05 15:31:05.094,-0.0724633534749349,
63,63,252,2021-10-05 15:31:05.098,-0.1727167765299479,
64,64,256,2021-10-05 15:31:05.102,-0.2145512898763021,
65,65,260,2021-10-05 15:31:05.106,-0.1181825002034505,
66,66,264,2021-10-05 15:31:05.110,-0.2992661794026693,
67,67,268,2021-10-05 15:31:05.114,-0.1470184326171875,
68,68,272,2021-10-05 15:31:05.118,-0.2170912424723307,
69,69,276,2021-10-05 15:31:05.122,-0.2321815490722656,
70,70,280,2021-10-05 15:31:05.126,-0.1325257619222005,
71,71,284,2021-10-05 15:31:05.130,-0.3062884012858073,
72,72,288,2021-10-05 15:31:05.134,-0.1491101582845052,
73,73,292,2021-10-05 15:31:05.138,-0.2327791849772135,
74,74,296,2021-10-05 15:31:05.142,-0.2483177185058594,
75,75,300,2021-10-05 15:31:05.146,-0.1456737518310547,
76,76,304,2021-10-05 15:31:05.150,-0.3191375732421875,
77,77,308,2021-10-05 15:31:05.154,-0.157925287882487,
78,78,312,2021-10-05 15:31:05.158,-0.243984858194987,
79,79,316,2021-10-05 15:31:05.162,-0.3570874532063802,
80,80,320,2021-10-05 15:31:05.166,-0.1543394724527995,
81,81,324,2021-10-05 15:31:05.170,-0.2844746907552083,
82,82,328,2021-10-05 15:31:05.174,-0.1906458536783854,
83,83,332,2021-10-05 15:31:05.178,-0.1786931355794271,
84,84,336,2021-10-05 15:31:05.182,-0.2968756357828776,
85,85,340,2021-10-05 15:31:05.186,-0.1443290710449219,
86,86,344,2021-10-05 15:31:05.190,-0.3074836730957032,
87,87,348,2021-10-05 15:31:05.194,-0.2218723297119141,
88,88,352,2021-10-05 15:31:05.198,-0.2070808410644531,
89,89,356,2021-10-05 15:31:05.202,-0.3164482116699219,
90,90,360,2021-10-05 15:31:05.206,-0.1426855723063151,
91,91,364,2021-10-05 15:31:05.210,-0.2858193715413412,
92,92,368,2021-10-05 15:31:05.214,-0.1922893524169922,
93,93,372,2021-10-05 15:31:05.218,-0.179141362508138,
94,94,376,2021-10-05 15:31:05.222,-0.294335683186849,
95,95,380,2021-10-05 15:31:05.226,-0.1281929016113281,
96,96,384,2021-10-05 15:31:05.230,-0.2835782368977865,
97,97,388,2021-10-05 15:31:05.234,-0.2018515268961588,
98,98,392,2021-10-05 15:31:05.238,-0.1957257588704427,
99,99,396,2021-10-05 15:31:05.242,-0.3027025858561198,
100,100,400,2021-10-05 15:31:05.246,-0.128939946492513,
101,101,404,2021-10-05 15:31:05.250,-0.2895545959472657,
102,102,408,2021-10-05 15:31:05.254,-0.2117125193277995,
103,103,412,2021-10-05 15:31:05.258,-0.1948293050130208,
104,104,416,2021-10-05 15:31:05.262,-0.294036865234375,
105,105,420,2021-10-05 15:31:05.266,-0.1234118143717448,
106,106,424,2021-10-05 15:31:05.270,-0.2837276458740235,
107,107,428,2021-10-05 15:31:05.274,-0.2127583821614583,
108,108,432,2021-10-05 15:31:05.278,-0.214999516805013,
109,109,436,2021-10-05 15:31:05.282,-0.3292973836263021,
110,110,440,2021-10-05 15:31:05.286,-0.1489607493082682,
111,111,444,2021-10-05 15:31:05.290,-0.2850723266601563,
112,112,448,2021-10-05 15:31:05.294,-0.1988633473714193,
113,113,452,2021-10-05 15:31:05.298,-0.2057361602783203,
114,114,456,2021-10-05 15:31:05.302,-0.3452841440836589,
115,115,460,2021-10-05 15:31:05.306,-0.1869106292724609,
116,116,464,2021-10-05 15:31:05.310,-0.3237692515055339,
117,117,468,2021-10-05 15:31:05.314,-0.2061843872070312,
118,118,472,2021-10-05 15:31:05.318,-0.1685333251953125,
119,119,476,2021-10-05 15:31:05.322,-0.2717749277750651,
120,120,480,2021-10-05 15:31:05.326,-0.1081720987955729,
121,121,484,2021-10-05 15:31:05.330,-0.2643044789632162,
122,122,488,2021-10-05 15:31:05.334,-0.1652463277180989,
123,123,492,2021-10-05 15:31:05.338,-0.1429843902587891,
124,124,496,2021-10-05 15:31:05.342,-0.2647527058919271,
125,125,500,2021-10-05 15:31:05.346,-0.0987593332926432,
126,126,504,2021-10-05 15:31:05.350,-0.2589257558186849,
127,127,508,2021-10-05 15:31:05.354,-0.1825777689615885,
128,128,512,2021-10-05 15:31:05.358,-0.1689815521240234,
129,129,516,2021-10-05 15:31:05.362,-0.2789465586344401,
130,130,520,2021-10-05 15:31:05.366,-0.1092179616292317,
131,131,524,2021-10-05 15:31:05.370,-0.2562363942464193,
132,132,528,2021-10-05 15:31:05.374,-0.1612122853597005,
133,133,532,2021-10-05 15:31:05.378,-0.1517995198567708,
134,134,536,2021-10-05 15:31:05.382,-0.2840264638264974,
135,135,540,2021-10-05 15:31:05.386,-0.1199754079182942,
136,136,544,2021-10-05 15:31:05.390,-0.2547423044840495,
137,137,548,2021-10-05 15:31:05.394,-0.1682345072428385,
138,138,552,2021-10-05 15:31:05.398,-0.1748085021972656,
139,139,556,2021-10-05 15:31:05.402,-0.3136094411214193,
140,140,560,2021-10-05 15:31:05.406,-0.1818307240804036,
141,141,564,2021-10-05 15:31:05.410,-0.3475252787272135,
142,142,568,2021-10-05 15:31:05.414,-0.2672926584879557,
143,143,572,2021-10-05 15:31:05.418,-0.2551905314127604,
144,144,576,2021-10-05 15:31:05.422,-0.3750165303548177,
145,145,580,2021-10-05 15:31:05.426,-0.215298334757487,
146,146,584,2021-10-05 15:31:05.430,-0.3467782338460287,
147,147,588,2021-10-05 15:31:05.434,-0.2420425415039062,
148,148,592,2021-10-05 15:31:05.438,-0.1957257588704427,
149,149,596,2021-10-05 15:31:05.442,-0.2695337931315104,
150,150,600,2021-10-05 15:31:05.446,-0.0942770640055338,
151,151,604,2021-10-05 15:31:05.450,-0.2504094441731771,
152,152,608,2021-10-05 15:31:05.454,-0.1659933725992838,
153,153,612,2021-10-05 15:31:05.458,-0.1497077941894531,
154,154,616,2021-10-05 15:31:05.462,-0.2711772918701172,
155,155,620,2021-10-05 15:31:05.466,-0.114596684773763,
156,156,624,2021-10-05 15:31:05.470,-0.265051523844401,
157,157,628,2021-10-05 15:31:05.474,-0.1824283599853516,
158,158,632,2021-10-05 15:31:05.478,-0.1739120483398437,
159,159,636,2021-10-05 15:31:05.482,-0.2919451395670573,
160,160,640,2021-10-05 15:31:05.486,-0.1244576772054036,
161,161,644,2021-10-05 15:31:05.490,-0.2759583791097005,
162,162,648,2021-10-05 15:31:05.494,-0.1827271779378255,
163,163,652,2021-10-05 15:31:05.498,-0.1694297790527344,
164,164,656,2021-10-05 15:31:05.502,-0.2813371022542318,
165,165,660,2021-10-05 15:31:05.506,-0.1175848642985026,
166,166,664,2021-10-05 15:31:05.510,-0.272820790608724,
167,167,668,2021-10-05 15:31:05.514,-0.2055867513020833,
168,168,672,2021-10-05 15:31:05.518,-0.2244122823079427,
169,169,676,2021-10-05 15:31:05.522,-0.3393077850341797,
170,170,680,2021-10-05 15:31:05.526,-0.1453749338785807,
171,171,684,2021-10-05 15:31:05.530,-0.2846240997314453,
172,172,688,2021-10-05 15:31:05.534,-0.1876576741536458,
173,173,692,2021-10-05 15:31:05.538,-0.1640510559082031,
174,174,696,2021-10-05 15:31:05.542,-0.265200932820638,
175,175,700,2021-10-05 15:31:05.546,-0.0978628794352213,
176,176,704,2021-10-05 15:31:05.550,-0.2536964416503907,
177,177,708,2021-10-05 15:31:05.554,-0.1761531829833984,
178,178,712,2021-10-05 15:31:05.558,-0.1739120483398437,
179,179,716,2021-10-05 15:31:05.562,-0.2888075510660807,
180,180,720,2021-10-05 15:31:05.566,-0.1172860463460286,
181,181,724,2021-10-05 15:31:05.570,-0.2566846211751302,
182,182,728,2021-10-05 15:31:05.574,-0.1652463277180989,
183,183,732,2021-10-05 15:31:05.578,-0.1670392354329427,
184,184,736,2021-10-05 15:31:05.582,-0.3052425384521485,
185,185,740,2021-10-05 15:31:05.586,-0.1538912455240885,
186,186,744,2021-10-05 15:31:05.590,-0.3003120422363282,
187,187,748,2021-10-05 15:31:05.594,-0.2196311950683594,
188,188,752,2021-10-05 15:31:05.598,-0.2284463246663411,
189,189,756,2021-10-05 15:31:05.602,-0.365454355875651,
190,190,760,2021-10-05 15:31:05.606,-0.2057361602783203,
191,191,764,2021-10-05 15:31:05.610,-0.3434912363688151,
192,192,768,2021-10-05 15:31:05.614,-0.2430884043375651,
193,193,772,2021-10-05 15:31:05.618,-0.2173900604248047,
194,194,776,2021-10-05 15:31:05.622,-0.32989501953125,
195,195,780,2021-10-05 15:31:05.626,-0.1570288340250651,
196,196,784,2021-10-05 15:31:05.630,-0.2931404113769532,
197,197,788,2021-10-05 15:31:05.634,-0.1884047190348307,
198,198,792,2021-10-05 15:31:05.638,-0.1573276519775391,
199,199,796,2021-10-05 15:31:05.642,-0.2711772918701172,
200,200,800,2021-10-05 15:31:05.646,-0.1255035400390625,
201,201,804,2021-10-05 15:31:05.650,-0.2820841471354167,
202,202,808,2021-10-05 15:31:05.654,-0.2067820231119791,
203,203,812,2021-10-05 15:31:05.658,-0.2191829681396484,
204,204,816,2021-10-05 15:31:05.662,-0.3406524658203125,
205,205,820,2021-10-05 15:31:05.666,-0.0993569691975911,
206,206,824,2021-10-05 15:31:05.670,-0.0708198547363281,
207,207,828,2021-10-05 15:31:05.674,0.2411460876464844,
208,208,832,2021-10-05 15:31:05.678,0.4291025797526042,
209,209,836,2021-10-05 15:31:05.682,0.3832340240478516,
210,210,840,2021-10-05 15:31:05.686,0.4202874501546224,
211,211,844,2021-10-05 15:31:05.690,-0.1643498738606771,
212,212,848,2021-10-05 15:31:05.694,-0.7579517364501954,
213,213,852,2021-10-05 15:31:05.698,-1.3451290130615237,
214,214,856,2021-10-05 15:31:05.702,-1.5610249837239585,
215,215,860,2021-10-05 15:31:05.706,-1.0164292653401694,
216,216,864,2021-10-05 15:31:05.710,-0.6224377950032552,
217,217,868,2021-10-05 15:31:05.714,-0.15777587890625,
218,218,872,2021-10-05 15:31:05.718,0.0446732838948567,
219,219,876,2021-10-05 15:31:05.722,-0.035708745320638,
220,220,880,2021-10-05 15:31:05.726,0.0969664255777995,
221,221,884,2021-10-05 15:31:05.730,-0.0962193806966145,
222,222,888,2021-10-05 15:31:05.734,-0.0421333312988281,
223,223,892,2021-10-05 15:31:05.738,-0.0472132364908854,
224,224,896,2021-10-05 15:31:05.742,-0.171969731648763,
225,225,900,2021-10-05 15:31:05.746,-0.021514892578125,
226,226,904,2021-10-05 15:31:05.750,-0.1919905344645182,
227,227,908,2021-10-05 15:31:05.754,-0.1105626424153645,
228,228,912,2021-10-05 15:31:05.758,-0.0941276550292968,
229,229,916,2021-10-05 15:31:05.762,-0.2043914794921875,
230,230,920,2021-10-05 15:31:05.766,-0.04302978515625,
231,231,924,2021-10-05 15:31:05.770,-0.2144018809000651,
232,232,928,2021-10-05 15:31:05.774,-0.1639016469319661,
233,233,932,2021-10-05 15:31:05.778,-0.1919905344645182,
234,234,936,2021-10-05 15:31:05.782,-0.3206316630045573,
235,235,940,2021-10-05 15:31:05.786,-0.1393985748291016,
236,236,944,2021-10-05 15:31:05.790,-0.279544194539388,
237,237,948,2021-10-05 15:31:05.794,-0.2057361602783203,
238,238,952,2021-10-05 15:31:05.798,-0.2052879333496094,
239,239,956,2021-10-05 15:31:05.802,-0.3458817799886068,
240,240,960,2021-10-05 15:31:05.806,-0.1898988087972005,
241,241,964,2021-10-05 15:31:05.810,-0.3409512837727865,
242,242,968,2021-10-05 15:31:05.814,-0.2403990427652995,
243,243,972,2021-10-05 15:31:05.818,-0.2087243398030599,
244,244,976,2021-10-05 15:31:05.822,-0.3021049499511719,
245,245,980,2021-10-05 15:31:05.826,-0.1180330912272135,
246,246,984,2021-10-05 15:31:05.830,-0.2489153544108073,
247,247,988,2021-10-05 15:31:05.834,-0.1562817891438802,
248,248,992,2021-10-05 15:31:05.838,-0.1613616943359375,
249,249,996,2021-10-05 15:31:05.842,-0.2974732716878255,
250,250,1000,2021-10-05 15:31:05.846,-0.1471678415934245,
251,251,1004,2021-10-05 15:31:05.850,-0.3091271718343099,
252,252,1008,2021-10-05 15:31:05.854,-0.2191829681396484,
253,253,1012,2021-10-05 15:31:05.858,-0.2045408884684245,
254,254,1016,2021-10-05 15:31:05.862,-0.3285503387451172,
255,255,1020,2021-10-05 15:31:05.866,-0.1679356892903646,
256,256,1024,2021-10-05 15:31:05.870,-0.323022206624349,
257,257,1028,2021-10-05 15:31:05.874,-0.2239640553792318,
258,258,1032,2021-10-05 15:31:05.878,-0.1909446716308594,
259,259,1036,2021-10-05 15:31:05.882,-0.2900028228759766,
260,260,1040,2021-10-05 15:31:05.886,-0.1110108693440755,
261,261,1044,2021-10-05 15:31:05.890,-0.2581787109375,
262,262,1048,2021-10-05 15:31:05.894,-0.1728661855061849,
263,263,1052,2021-10-05 15:31:05.898,-0.1676368713378906,
264,264,1056,2021-10-05 15:31:05.902,-0.3000132242838542,
265,265,1060,2021-10-05 15:31:05.906,-0.1371574401855469,
266,266,1064,2021-10-05 15:31:05.910,-0.2885087331136068,
267,267,1068,2021-10-05 15:31:05.914,-0.1982657114664713,
268,268,1072,2021-10-05 15:31:05.918,-0.1809342702229817,
269,269,1076,2021-10-05 15:31:05.922,-0.2980709075927735,
270,270,1080,2021-10-05 15:31:05.926,-0.1259517669677734,
271,271,1084,2021-10-05 15:31:05.930,-0.2759583791097005,
272,272,1088,2021-10-05 15:31:05.934,-0.1912434895833333,
273,273,1092,2021-10-05 15:31:05.938,-0.1845200856526692,
274,274,1096,2021-10-05 15:31:05.942,-0.3121153513590495,
275,275,1100,2021-10-05 15:31:05.946,-0.1464207967122396,
276,276,1104,2021-10-05 15:31:05.950,-0.3047943115234375,
277,277,1108,2021-10-05 15:31:05.954,-0.2176888783772786,
278,278,1112,2021-10-05 15:31:05.958,-0.1946798960367838,
279,279,1116,2021-10-05 15:31:05.962,-0.3124141693115235,
280,280,1120,2021-10-05 15:31:05.966,-0.1402950286865234,
281,281,1124,2021-10-05 15:31:05.970,-0.2956803639729818,
282,282,1128,2021-10-05 15:31:05.974,-0.2073796590169271,
283,283,1132,2021-10-05 15:31:05.978,-0.1904964447021484,
284,284,1136,2021-10-05 15:31:05.982,-0.3101730346679688,
285,285,1140,2021-10-05 15:31:05.986,-0.1332728068033854,
286,286,1144,2021-10-05 15:31:05.990,-0.27252197265625,
287,287,1148,2021-10-05 15:31:05.994,-0.1810836791992187,
288,288,1152,2021-10-05 15:31:05.998,-0.1709238688151041,
289,289,1156,2021-10-05 15:31:06.002,-0.2952321370442708,
290,290,1160,2021-10-05 15:31:06.006,-0.1325257619222005,
291,291,1164,2021-10-05 15:31:06.010,-0.2804406483968099,
292,292,1168,2021-10-05 15:31:06.014,-0.1907952626546224,
293,293,1172,2021-10-05 15:31:06.018,-0.1680850982666016,
294,294,1176,2021-10-05 15:31:06.022,-0.2817853291829427,
295,295,1180,2021-10-05 15:31:06.026,-0.1223659515380859,
296,296,1184,2021-10-05 15:31:06.030,-0.2844746907552083,
297,297,1188,2021-10-05 15:31:06.034,-0.1948293050130208,
298,298,1192,2021-10-05 15:31:06.038,-0.1691309611002604,
299,299,1196,2021-10-05 15:31:06.042,-0.2856699625651042,
300,300,1200,2021-10-05 15:31:06.046,-0.1308822631835937,
301,301,1204,2021-10-05 15:31:06.050,-0.2901522318522135,
302,302,1208,2021-10-05 15:31:06.054,-0.2052879333496094,
303,303,1212,2021-10-05 15:31:06.058,-0.1798884073893229,
304,304,1216,2021-10-05 15:31:06.062,-0.2888075510660807,
305,305,1220,2021-10-05 15:31:06.066,-0.1244576772054036,
306,306,1224,2021-10-05 15:31:06.070,-0.279693603515625,
307,307,1228,2021-10-05 15:31:06.074,-0.1966222127278646,
308,308,1232,2021-10-05 15:31:06.078,-0.179141362508138,
309,309,1236,2021-10-05 15:31:06.082,-0.294036865234375,
310,310,1240,2021-10-05 15:31:06.086,-0.1392491658528646,
311,311,1244,2021-10-05 15:31:06.090,-0.2952321370442708,
312,312,1248,2021-10-05 15:31:06.094,-0.2087243398030599,
313,313,1252,2021-10-05 15:31:06.098,-0.1922893524169922,
314,314,1256,2021-10-05 15:31:06.102,-0.3100236256917318,
315,315,1260,2021-10-05 15:31:06.106,-0.1513512929280599,
316,316,1264,2021-10-05 15:31:06.110,-0.3019555409749349,
317,317,1268,2021-10-05 15:31:06.114,-0.2191829681396484,
318,318,1272,2021-10-05 15:31:06.118,-0.2052879333496094,
319,319,1276,2021-10-05 15:31:06.122,-0.3194363911946615,
320,320,1280,2021-10-05 15:31:06.126,-0.1402950286865234,
321,321,1284,2021-10-05 15:31:06.130,-0.2705796559651693,
322,322,1288,2021-10-05 15:31:06.134,-0.179141362508138,
323,323,1292,2021-10-05 15:31:06.138,-0.1698780059814453,
324,324,1296,2021-10-05 15:31:06.142,-0.2892557779947917,
325,325,1300,2021-10-05 15:31:06.146,-0.1281929016113281,
326,326,1304,2021-10-05 15:31:06.150,-0.2789465586344401,
327,327,1308,2021-10-05 15:31:06.154,-0.1969210306803385,
328,328,1312,2021-10-05 15:31:06.158,-0.1895999908447266,
329,329,1316,2021-10-05 15:31:06.162,-0.3717295328776042,
330,330,1320,2021-10-05 15:31:06.166,-0.1580746968587239,
331,331,1324,2021-10-05 15:31:06.170,-0.2100690205891927,
332,332,1328,2021-10-05 15:31:06.174,-0.2402496337890625,
333,333,1332,2021-10-05 15:31:06.178,-0.1461219787597656,
334,334,1336,2021-10-05 15:31:06.182,-0.3165976206461589,
335,335,1340,2021-10-05 15:31:06.186,-0.1389503479003906,
336,336,1344,2021-10-05 15:31:06.190,-0.2060349782307943,
337,337,1348,2021-10-05 15:31:06.194,-0.2384567260742187,Start
338,338,1352,2021-10-05 15:31:06.198,-0.1373068491617838,
339,339,1356,2021-10-05 15:31:06.202,-0.3103224436442057,
340,340,1360,2021-10-05 15:31:06.206,-0.1390997568766276,
341,341,1364,2021-10-05 15:31:06.210,-0.2003574371337891,
342,342,1368,2021-10-05 15:31:06.214,-0.2061843872070312,
343,343,1372,2021-10-05 15:31:06.218,-0.100253423055013,
344,344,1376,2021-10-05 15:31:06.222,-0.2768548329671224,
345,345,1380,2021-10-05 15:31:06.226,-0.114596684773763,
346,346,1384,2021-10-05 15:31:06.230,-0.207678476969401,
347,347,1388,2021-10-05 15:31:06.234,-0.2532482147216797,
348,348,1392,2021-10-05 15:31:06.238,-0.1725673675537109,
349,349,1396,2021-10-05 15:31:06.242,-0.3466288248697917,
350,350,1400,2021-10-05 15:31:06.246,-0.1839224497477213,
351,351,1404,2021-10-05 15:31:06.250,-0.279394785563151,
352,352,1408,2021-10-05 15:31:06.254,-0.3201834360758464,
353,353,1412,2021-10-05 15:31:06.258,-0.2212746938069661,
354,354,1416,2021-10-05 15:31:06.262,-0.3777058919270833,
355,355,1420,2021-10-05 15:31:06.266,-0.1801872253417969,
356,356,1424,2021-10-05 15:31:06.270,-0.2176888783772786,
357,357,1428,2021-10-05 15:31:06.274,-0.2260557810465495,
358,358,1432,2021-10-05 15:31:06.278,-0.1383527119954427,
359,359,1436,2021-10-05 15:31:06.282,-0.329745610555013,
360,360,1440,2021-10-05 15:31:06.286,-0.1730155944824219,
361,361,1444,2021-10-05 15:31:06.290,-0.2344226837158203,
362,362,1448,2021-10-05 15:31:06.294,-0.2617645263671875,
363,363,1452,2021-10-05 15:31:06.298,-0.1833248138427734,
364,364,1456,2021-10-05 15:31:06.302,-0.3381125132242839,
365,365,1460,2021-10-05 15:31:06.306,-0.0708198547363281,
366,366,1464,2021-10-05 15:31:06.310,0.0847148895263672,
367,367,1468,2021-10-05 15:31:06.314,0.2805900573730469,
368,368,1472,2021-10-05 15:31:06.318,0.5275630950927735,
369,369,1476,2021-10-05 15:31:06.322,0.395037333170573,
370,370,1480,2021-10-05 15:31:06.326,0.301357905069987,
371,371,1484,2021-10-05 15:31:06.330,-0.3173446655273438,
372,372,1488,2021-10-05 15:31:06.334,-1.0730552673339846,
373,373,1492,2021-10-05 15:31:06.338,-1.448968251546224,
374,374,1496,2021-10-05 15:31:06.342,-1.478401819864909,
375,375,1500,2021-10-05 15:31:06.346,-0.8664226531982423,
376,376,1504,2021-10-05 15:31:06.350,-0.4601796468098958,
377,377,1508,2021-10-05 15:31:06.354,-0.1825777689615885,
378,378,1512,2021-10-05 15:31:06.358,0.0431791941324869,
379,379,1516,2021-10-05 15:31:06.362,-0.1086203257242838,
380,380,1520,2021-10-05 15:31:06.366,0.0264453887939453,
381,381,1524,2021-10-05 15:31:06.370,-0.0673834482828776,
382,382,1528,2021-10-05 15:31:06.374,-0.0968170166015625,
383,383,1532,2021-10-05 15:31:06.378,0.0100104014078776,
384,384,1536,2021-10-05 15:31:06.382,-0.1547876993815104,
385,385,1540,2021-10-05 15:31:06.386,-0.006723403930664,
386,386,1544,2021-10-05 15:31:06.390,-0.1099650065104166,
387,387,1548,2021-10-05 15:31:06.394,-0.1567300160725911,
388,388,1552,2021-10-05 15:31:06.398,-0.0697739919026692,
389,389,1556,2021-10-05 15:31:06.402,-0.2405484517415365,
390,390,1560,2021-10-05 15:31:06.406,-0.0794855753580729,
391,391,1564,2021-10-05 15:31:06.410,-0.1704756418863932,
392,392,1568,2021-10-05 15:31:06.414,-0.2115631103515625,
393,393,1572,2021-10-05 15:31:06.418,-0.1272964477539062,
394,394,1576,2021-10-05 15:31:06.422,-0.30120849609375,
395,395,1580,2021-10-05 15:31:06.426,-0.1498572031656901,
396,396,1584,2021-10-05 15:31:06.430,-0.2457777659098307,
397,397,1588,2021-10-05 15:31:06.434,-0.2847735087076823,
398,398,1592,2021-10-05 15:31:06.438,-0.1895999908447266,
399,399,1596,2021-10-05 15:31:06.442,-0.3502146402994792,
400,400,1600,2021-10-05 15:31:06.446,-0.1746590932210286,
401,401,1604,2021-10-05 15:31:06.450,-0.2281475067138672,
402,402,1608,2021-10-05 15:31:06.454,-0.243984858194987,
403,403,1612,2021-10-05 15:31:06.458,-0.1515007019042969,
404,404,1616,2021-10-05 15:31:06.462,-0.3116671244303385,
405,405,1620,2021-10-05 15:31:06.466,-0.1492595672607422,
406,406,1624,2021-10-05 15:31:06.470,-0.2317333221435547,
407,407,1628,2021-10-05 15:31:06.474,-0.2640056610107422,
408,408,1632,2021-10-05 15:31:06.478,-0.171820322672526,
409,409,1636,2021-10-05 15:31:06.482,-0.3257115681966146,
410,410,1640,2021-10-05 15:31:06.486,-0.1664415995279948,
411,411,1644,2021-10-05 15:31:06.490,-0.2414449055989583,
412,412,1648,2021-10-05 15:31:06.494,-0.2602704366048177,
413,413,1652,2021-10-05 15:31:06.498,-0.1564311981201172,
414,414,1656,2021-10-05 15:31:06.502,-0.3215281168619792,
415,415,1660,2021-10-05 15:31:06.506,-0.1595687866210937,
416,416,1664,2021-10-05 15:31:06.510,-0.2306874593098958,
417,417,1668,2021-10-05 15:31:06.514,-0.2496623992919922,
418,418,1672,2021-10-05 15:31:06.518,-0.150454839070638,
419,419,1676,2021-10-05 15:31:06.522,-0.3137588500976563,
420,420,1680,2021-10-05 15:31:06.526,-0.1419385274251302,
421,421,1684,2021-10-05 15:31:06.530,-0.2167924245198568,
422,422,1688,2021-10-05 15:31:06.534,-0.2395025889078776,
423,423,1692,2021-10-05 15:31:06.538,-0.1438808441162109,
424,424,1696,2021-10-05 15:31:06.542,-0.3095753987630208,
425,425,1700,2021-10-05 15:31:06.546,-0.1570288340250651,
426,426,1704,2021-10-05 15:31:06.550,-0.2359167734781901,
427,427,1708,2021-10-05 15:31:06.554,-0.2568340301513672,
428,428,1712,2021-10-05 15:31:06.558,-0.1573276519775391,
429,429,1716,2021-10-05 15:31:06.562,-0.3151035308837891,
430,430,1720,2021-10-05 15:31:06.566,-0.1724179585774739,
431,431,1724,2021-10-05 15:31:06.570,-0.2708784739176432,
432,432,1728,2021-10-05 15:31:06.574,-0.301357905069987,
433,433,1732,2021-10-05 15:31:06.578,-0.2070808410644531,
434,434,1736,2021-10-05 15:31:06.582,-0.3663508097330729,
435,435,1740,2021-10-05 15:31:06.586,-0.1888529459635416,
436,436,1744,2021-10-05 15:31:06.590,-0.2429389953613281,
437,437,1748,2021-10-05 15:31:06.594,-0.251007080078125,
438,438,1752,2021-10-05 15:31:06.598,-0.1534430185953776,
439,439,1756,2021-10-05 15:31:06.602,-0.315252939860026,
440,440,1760,2021-10-05 15:31:06.606,-0.1580746968587239,
441,441,1764,2021-10-05 15:31:06.610,-0.2320321400960286,
442,442,1768,2021-10-05 15:31:06.614,-0.2380084991455078,
443,443,1772,2021-10-05 15:31:06.618,-0.1223659515380859,
444,444,1776,2021-10-05 15:31:06.622,-0.279544194539388,
445,445,1780,2021-10-05 15:31:06.626,-0.1258023579915364,
446,446,1784,2021-10-05 15:31:06.630,-0.1999092102050781,
447,447,1788,2021-10-05 15:31:06.634,-0.2253087361653646,
448,448,1792,2021-10-05 15:31:06.638,-0.121469497680664,
449,449,1796,2021-10-05 15:31:06.642,-0.2864170074462891,
450,450,1800,2021-10-05 15:31:06.646,-0.1401456197102864,
451,451,1804,2021-10-05 15:31:06.650,-0.2127583821614583,
452,452,1808,2021-10-05 15:31:06.654,-0.2324803670247396,
453,453,1812,2021-10-05 15:31:06.658,-0.1438808441162109,
454,454,1816,2021-10-05 15:31:06.662,-0.3074836730957032,
455,455,1820,2021-10-05 15:31:06.666,-0.1555347442626953,
456,456,1824,2021-10-05 15:31:06.670,-0.2342732747395833,
457,457,1828,2021-10-05 15:31:06.674,-0.2562363942464193,
458,458,1832,2021-10-05 15:31:06.678,-0.1568794250488281,
459,459,1836,2021-10-05 15:31:06.682,-0.3161493937174479,
460,460,1840,2021-10-05 15:31:06.686,-0.1633040110270182,
461,461,1844,2021-10-05 15:31:06.690,-0.2230676015218099,
462,462,1848,2021-10-05 15:31:06.694,-0.2393531799316406,
463,463,1852,2021-10-05 15:31:06.698,-0.1458231608072916,
464,464,1856,2021-10-05 15:31:06.702,-0.2992661794026693,
465,465,1860,2021-10-05 15:31:06.706,-0.150604248046875,
466,466,1864,2021-10-05 15:31:06.710,-0.2200794219970703,
467,467,1868,2021-10-05 15:31:06.714,-0.2450307210286458,
468,468,1872,2021-10-05 15:31:06.718,-0.1525465647379557,
469,469,1876,2021-10-05 15:31:06.722,-0.3186893463134766,
470,470,1880,2021-10-05 15:31:06.726,-0.1763025919596354,
471,471,1884,2021-10-05 15:31:06.730,-0.2475706736246745,
472,472,1888,2021-10-05 15:31:06.734,-0.2620633443196615,
473,473,1892,2021-10-05 15:31:06.738,-0.1591205596923828,
474,474,1896,2021-10-05 15:31:06.742,-0.3149541219075521,
475,475,1900,2021-10-05 15:31:06.746,-0.1671886444091797,
476,476,1904,2021-10-05 15:31:06.750,-0.2462259928385416,
477,477,1908,2021-10-05 15:31:06.754,-0.2680397033691407,
478,478,1912,2021-10-05 15:31:06.758,-0.1788425445556641,
479,479,1916,2021-10-05 15:31:06.762,-0.3281021118164063,
480,480,1920,2021-10-05 15:31:06.766,-0.1644992828369141,
481,481,1924,2021-10-05 15:31:06.770,-0.2330780029296875,
482,482,1928,2021-10-05 15:31:06.774,-0.2681891123453776,
483,483,1932,2021-10-05 15:31:06.778,-0.1662921905517578,
484,484,1936,2021-10-05 15:31:06.782,-0.3053919474283854,
485,485,1940,2021-10-05 15:31:06.786,-0.1441796620686849,
486,486,1944,2021-10-05 15:31:06.790,-0.2057361602783203,
487,487,1948,2021-10-05 15:31:06.794,-0.2312850952148437,
488,488,1952,2021-10-05 15:31:06.798,-0.1396973927815755,
489,489,1956,2021-10-05 15:31:06.802,-0.2998638153076172,
490,490,1960,2021-10-05 15:31:06.806,-0.1470184326171875,
491,491,1964,2021-10-05 15:31:06.810,-0.2127583821614583,
492,492,1968,2021-10-05 15:31:06.814,-0.236663818359375,
493,493,1972,2021-10-05 15:31:06.818,-0.1522477467854817,
494,494,1976,2021-10-05 15:31:06.822,-0.3200340270996094,
495,495,1980,2021-10-05 15:31:06.826,-0.1604652404785156,
496,496,1984,2021-10-05 15:31:06.830,-0.229791005452474,
497,497,1988,2021-10-05 15:31:06.834,-0.2480189005533854,
498,498,1992,2021-10-05 15:31:06.838,-0.1426855723063151,
499,499,1996,2021-10-05 15:31:06.842,-0.2973238627115885,
500,500,2000,2021-10-05 15:31:06.846,-0.1249059041341145,
501,501,2004,2021-10-05 15:31:06.850,-0.1951281229654948,
502,502,2008,2021-10-05 15:31:06.854,-0.2327791849772135,
503,503,2012,2021-10-05 15:31:06.858,-0.1540406545003255,
504,504,2016,2021-10-05 15:31:06.862,-0.3263092041015625,
505,505,2020,2021-10-05 15:31:06.866,-0.1588217417399088,
506,506,2024,2021-10-05 15:31:06.870,-0.2262051900227865,
507,507,2028,2021-10-05 15:31:06.874,-0.2445824940999349,
508,508,2032,2021-10-05 15:31:06.878,-0.1642004648844401,
509,509,2036,2021-10-05 15:31:06.882,-0.3500652313232422,
510,510,2040,2021-10-05 15:31:06.886,-0.2057361602783203,
511,511,2044,2021-10-05 15:31:06.890,-0.2759583791097005,
512,512,2048,2021-10-05 15:31:06.894,-0.2705796559651693,
513,513,2052,2021-10-05 15:31:06.898,-0.1549371083577474,
514,514,2056,2021-10-05 15:31:06.902,-0.3165976206461589,
515,515,2060,2021-10-05 15:31:06.906,-0.1498572031656901,
516,516,2064,2021-10-05 15:31:06.910,-0.2209758758544922,
517,517,2068,2021-10-05 15:31:06.914,-0.236962636311849,
518,518,2072,2021-10-05 15:31:06.918,-0.1272964477539062,
519,519,2076,2021-10-05 15:31:06.922,-0.2877616882324219,
520,520,2080,2021-10-05 15:31:06.926,-0.1398468017578125,
521,521,2084,2021-10-05 15:31:06.930,-0.2378590901692708,
522,522,2088,2021-10-05 15:31:06.934,-0.2989673614501953,
523,523,2092,2021-10-05 15:31:06.938,-0.243536631266276,
524,524,2096,2021-10-05 15:31:06.942,-0.3833834330240886,
525,525,2100,2021-10-05 15:31:06.946,-0.0851631164550781,
526,526,2104,2021-10-05 15:31:06.950,0.0844160715738932,
527,527,2108,2021-10-05 15:31:06.954,0.2771536509195964,
528,528,2112,2021-10-05 15:31:06.958,0.5050023396809896,
529,529,2116,2021-10-05 15:31:06.962,0.3416983286539714,
530,530,2120,2021-10-05 15:31:06.966,0.1688321431477864,
531,531,2124,2021-10-05 15:31:06.970,-0.4548009236653646,
532,532,2128,2021-10-05 15:31:06.974,-1.069768269856771,
533,533,2132,2021-10-05 15:31:06.978,-1.3034439086914065,
534,534,2136,2021-10-05 15:31:06.982,-1.2808831532796223,
535,535,2140,2021-10-05 15:31:06.986,-0.7170136769612631,
536,536,2144,2021-10-05 15:31:06.990,-0.373373031616211,
537,537,2148,2021-10-05 15:31:06.994,-0.1556841532389323,
538,538,2152,2021-10-05 15:31:06.998,0.0150903065999348,
539,539,2156,2021-10-05 15:31:07.002,-0.1452255249023437,
540,540,2160,2021-10-05 15:31:07.006,-0.0037352244059244,
541,541,2164,2021-10-05 15:31:07.010,-0.0779914855957031,
542,542,2168,2021-10-05 15:31:07.014,-0.1117579142252604,
543,543,2172,2021-10-05 15:31:07.018,-0.0222619374593098,
544,544,2176,2021-10-05 15:31:07.022,-0.1836236317952474,
545,545,2180,2021-10-05 15:31:07.026,-0.0407886505126953,
546,546,2184,2021-10-05 15:31:07.030,-0.1120567321777343,
547,547,2188,2021-10-05 15:31:07.034,-0.1423867543538411,
548,548,2192,2021-10-05 15:31:07.038,-0.0646940867106119,
549,549,2196,2021-10-05 15:31:07.042,-0.2429389953613281,
550,550,2200,2021-10-05 15:31:07.046,-0.1175848642985026,
551,551,2204,2021-10-05 15:31:07.050,-0.2000586191813151,
552,552,2208,2021-10-05 15:31:07.054,-0.2244122823079427,
553,553,2212,2021-10-05 15:31:07.058,-0.1350657145182291,
554,554,2216,2021-10-05 15:31:07.062,-0.2976226806640625,
555,555,2220,2021-10-05 15:31:07.066,-0.1680850982666016,
556,556,2224,2021-10-05 15:31:07.070,-0.2447319030761719,
557,557,2228,2021-10-05 15:31:07.074,-0.2649021148681641,
558,558,2232,2021-10-05 15:31:07.078,-0.1656945546468099,
559,559,2236,2021-10-05 15:31:07.082,-0.3110694885253907,
560,560,2240,2021-10-05 15:31:07.086,-0.1618099212646484,
561,561,2244,2021-10-05 15:31:07.090,-0.2299404144287109,
562,562,2248,2021-10-05 15:31:07.094,-0.2595233917236328,
563,563,2252,2021-10-05 15:31:07.098,-0.1664415995279948,
564,564,2256,2021-10-05 15:31:07.102,-0.3131612141927083,
565,565,2260,2021-10-05 15:31:07.106,-0.1644992828369141,
566,566,2264,2021-10-05 15:31:07.110,-0.2312850952148437,
567,567,2268,2021-10-05 15:31:07.114,-0.2563858032226563,
568,568,2272,2021-10-05 15:31:07.118,-0.1664415995279948,
569,569,2276,2021-10-05 15:31:07.122,-0.322424570719401,
570,570,2280,2021-10-05 15:31:07.126,-0.1827271779378255,
571,571,2284,2021-10-05 15:31:07.130,-0.2475706736246745,
572,572,2288,2021-10-05 15:31:07.134,-0.2614657084147135,
573,573,2292,2021-10-05 15:31:07.138,-0.1655451456705729,
574,574,2296,2021-10-05 15:31:07.142,-0.3145058949788412,
575,575,2300,2021-10-05 15:31:07.146,-0.1449267069498698,
576,576,2304,2021-10-05 15:31:07.150,-0.2126089731852213,
577,577,2308,2021-10-05 15:31:07.154,-0.236514409383138,
578,578,2312,2021-10-05 15:31:07.158,-0.1470184326171875,
579,579,2316,2021-10-05 15:31:07.162,-0.3358713785807292,
580,580,2320,2021-10-05 15:31:07.166,-0.222171147664388,
581,581,2324,2021-10-05 15:31:07.170,-0.1766014099121094,
582,582,2328,2021-10-05 15:31:07.174,-0.272372563680013,
583,583,2332,2021-10-05 15:31:07.178,-0.1153437296549479,
584,584,2336,2021-10-05 15:31:07.182,-0.2674420674641927,
585,585,2340,2021-10-05 15:31:07.186,-0.186312993367513,
586,586,2344,2021-10-05 15:31:07.190,-0.1755555470784505,
587,587,2348,2021-10-05 15:31:07.194,-0.294036865234375,
588,588,2352,2021-10-05 15:31:07.198,-0.1413408915201823,
589,589,2356,2021-10-05 15:31:07.202,-0.2841758728027344,
590,590,2360,2021-10-05 15:31:07.206,-0.1957257588704427,
591,591,2364,2021-10-05 15:31:07.210,-0.1904964447021484,
592,592,2368,2021-10-05 15:31:07.214,-0.3110694885253907,
593,593,2372,2021-10-05 15:31:07.218,-0.1541900634765625,
594,594,2376,2021-10-05 15:31:07.222,-0.3061389923095703,
595,595,2380,2021-10-05 15:31:07.226,-0.2278486887613932,
596,596,2384,2021-10-05 15:31:07.230,-0.2190335591634115,
597,597,2388,2021-10-05 15:31:07.234,-0.3363196055094401,
598,598,2392,2021-10-05 15:31:07.238,-0.1743602752685547,
599,599,2396,2021-10-05 15:31:07.242,-0.3197352091471354,
600,600,2400,2021-10-05 15:31:07.246,-0.2248605092366536,
601,601,2404,2021-10-05 15:31:07.250,-0.1954269409179687,
602,602,2408,2021-10-05 15:31:07.254,-0.3074836730957032,
603,603,2412,2021-10-05 15:31:07.258,-0.1515007019042969,
604,604,2416,2021-10-05 15:31:07.262,-0.286715825398763,
605,605,2420,2021-10-05 15:31:07.266,-0.18646240234375,
606,606,2424,2021-10-05 15:31:07.270,-0.1561323801676432,
607,607,2428,2021-10-05 15:31:07.274,-0.2616151173909505,
608,608,2432,2021-10-05 15:31:07.278,-0.0935300191243489,
609,609,2436,2021-10-05 15:31:07.282,-0.2309862772623698,
610,610,2440,2021-10-05 15:31:07.286,-0.1544888814290364,
611,611,2444,2021-10-05 15:31:07.290,-0.1455243428548177,
612,612,2448,2021-10-05 15:31:07.294,-0.265798568725586,
613,613,2452,2021-10-05 15:31:07.298,-0.1189295450846354,
614,614,2456,2021-10-05 15:31:07.302,-0.2771536509195964,
615,615,2460,2021-10-05 15:31:07.306,-0.1979668935139974,
616,616,2464,2021-10-05 15:31:07.310,-0.1876576741536458,
617,617,2468,2021-10-05 15:31:07.314,-0.3052425384521485,
618,618,2472,2021-10-05 15:31:07.318,-0.1425361633300781,
619,619,2476,2021-10-05 15:31:07.322,-0.2781995137532552,
620,620,2480,2021-10-05 15:31:07.326,-0.1994609832763672,
621,621,2484,2021-10-05 15:31:07.330,-0.1797389984130859,
622,622,2488,2021-10-05 15:31:07.334,-0.2920945485432943,
623,623,2492,2021-10-05 15:31:07.338,-0.1396973927815755,
624,624,2496,2021-10-05 15:31:07.342,-0.287164052327474,
625,625,2500,2021-10-05 15:31:07.346,-0.2126089731852213,
626,626,2504,2021-10-05 15:31:07.350,-0.2073796590169271,
627,627,2508,2021-10-05 15:31:07.354,-0.3149541219075521,
628,628,2512,2021-10-05 15:31:07.358,-0.1501560211181641,
629,629,2516,2021-10-05 15:31:07.362,-0.2850723266601563,
630,630,2520,2021-10-05 15:31:07.366,-0.200656255086263,
631,631,2524,2021-10-05 15:31:07.370,-0.1873588562011719,
632,632,2528,2021-10-05 15:31:07.374,-0.2958297729492188,
633,633,2532,2021-10-05 15:31:07.378,-0.1371574401855469,
634,634,2536,2021-10-05 15:31:07.382,-0.2790959676106771,
635,635,2540,2021-10-05 15:31:07.386,-0.1919905344645182,
636,636,2544,2021-10-05 15:31:07.390,-0.1780954996744791,
637,637,2548,2021-10-05 15:31:07.394,-0.294335683186849,
638,638,2552,2021-10-05 15:31:07.398,-0.1443290710449219,
639,639,2556,2021-10-05 15:31:07.402,-0.2891063690185547,
640,640,2560,2021-10-05 15:31:07.406,-0.1922893524169922,
641,641,2564,2021-10-05 15:31:07.410,-0.1698780059814453,
642,642,2568,2021-10-05 15:31:07.414,-0.2928415934244792,
643,643,2572,2021-10-05 15:31:07.418,-0.1492595672607422,
644,644,2576,2021-10-05 15:31:07.422,-0.293738047281901,
645,645,2580,2021-10-05 15:31:07.426,-0.1943810780843099,
646,646,2584,2021-10-05 15:31:07.430,-0.1748085021972656,
647,647,2588,2021-10-05 15:31:07.434,-0.2820841471354167,
648,648,2592,2021-10-05 15:31:07.438,-0.121320088704427,
649,649,2596,2021-10-05 15:31:07.442,-0.2761077880859375,
650,650,2600,2021-10-05 15:31:07.446,-0.193484624226888,
651,651,2604,2021-10-05 15:31:07.450,-0.1843706766764323,
652,652,2608,2021-10-05 15:31:07.454,-0.30120849609375,
653,653,2612,2021-10-05 15:31:07.458,-0.1407432556152344,
654,654,2616,2021-10-05 15:31:07.462,-0.2829806009928385,
655,655,2620,2021-10-05 15:31:07.466,-0.1951281229654948,
656,656,2624,2021-10-05 15:31:07.470,-0.179290771484375,
657,657,2628,2021-10-05 15:31:07.474,-0.2917957305908203,
658,658,2632,2021-10-05 15:31:07.478,-0.1376056671142578,
659,659,2636,2021-10-05 15:31:07.482,-0.2832794189453125,
660,660,2640,2021-10-05 15:31:07.486,-0.1894505818684896,
661,661,2644,2021-10-05 15:31:07.490,-0.1700274149576823,
662,662,2648,2021-10-05 15:31:07.494,-0.2825323740641276,
663,663,2652,2021-10-05 15:31:07.498,-0.1322269439697266,
664,664,2656,2021-10-05 15:31:07.502,-0.2787971496582032,
665,665,2660,2021-10-05 15:31:07.506,-0.1879564921061198,
666,666,2664,2021-10-05 15:31:07.510,-0.1767508188883463,
667,667,2668,2021-10-05 15:31:07.514,-0.3089777628580729,
668,668,2672,2021-10-05 15:31:07.518,-0.1724179585774739,
669,669,2676,2021-10-05 15:31:07.522,-0.3312397003173828,
670,670,2680,2021-10-05 15:31:07.526,-0.2462259928385416,
671,671,2684,2021-10-05 15:31:07.530,-0.2263545989990234,
672,672,2688,2021-10-05 15:31:07.534,-0.3252633412679037,
673,673,2692,2021-10-05 15:31:07.538,-0.1535924275716146,
674,674,2696,2021-10-05 15:31:07.542,-0.2920945485432943,
675,675,2700,2021-10-05 15:31:07.546,-0.1961739857991536,
676,676,2704,2021-10-05 15:31:07.550,-0.1700274149576823,
677,677,2708,2021-10-05 15:31:07.554,-0.2737172444661458,
678,678,2712,2021-10-05 15:31:07.558,-0.1139990488688151,
679,679,2716,2021-10-05 15:31:07.562,-0.2684879302978516,
680,680,2720,2021-10-05 15:31:07.566,-0.2073796590169271,
681,681,2724,2021-10-05 15:31:07.570,-0.229342778523763,
682,682,2728,2021-10-05 15:31:07.574,-0.3669484456380208,
683,683,2732,2021-10-05 15:31:07.578,-0.1537418365478516,
684,684,2736,2021-10-05 15:31:07.582,-0.1087697347005208,
685,685,2740,2021-10-05 15:31:07.586,0.2305380503336588,
686,686,2744,2021-10-05 15:31:07.590,0.4316425323486328,
687,687,2748,2021-10-05 15:31:07.594,0.4029560089111328,
688,688,2752,2021-10-05 15:31:07.598,0.4170004526774089,
689,689,2756,2021-10-05 15:31:07.602,-0.1662921905517578,
690,690,2760,2021-10-05 15:31:07.606,-0.7110373179117839,
691,691,2764,2021-10-05 15:31:07.610,-1.2539895375569663,
692,692,2768,2021-10-05 15:31:07.614,-1.5045483907063804,
693,693,2772,2021-10-05 15:31:07.618,-1.0109011332194011,
694,694,2776,2021-10-05 15:31:07.622,-0.6393210093180339,
695,695,2780,2021-10-05 15:31:07.626,-0.1964728037516276,
696,696,2784,2021-10-05 15:31:07.630,-0.014193852742513,
697,697,2788,2021-10-05 15:31:07.634,-0.099805196126302,
698,698,2792,2021-10-05 15:31:07.638,0.0422827402750651,
699,699,2796,2021-10-05 15:31:07.642,-0.1171366373697916,
700,700,2800,2021-10-05 15:31:07.646,-0.035708745320638,
701,701,2804,2021-10-05 15:31:07.650,-0.0279394785563151,
702,702,2808,2021-10-05 15:31:07.654,-0.1534430185953776,
703,703,2812,2021-10-05 15:31:07.658,-0.0171820322672526,
704,704,2816,2021-10-05 15:31:07.662,-0.171820322672526,
705,705,2820,2021-10-05 15:31:07.666,-0.0954723358154297,
706,706,2824,2021-10-05 15:31:07.670,-0.0939782460530599,
707,707,2828,2021-10-05 15:31:07.674,-0.2250099182128906,
708,708,2832,2021-10-05 15:31:07.678,-0.0874042510986328,
709,709,2836,2021-10-05 15:31:07.682,-0.2417437235514323,
710,710,2840,2021-10-05 15:31:07.686,-0.1673380533854166,
711,711,2844,2021-10-05 15:31:07.690,-0.1520983378092448,
712,712,2848,2021-10-05 15:31:07.694,-0.2805900573730469,
713,713,2852,2021-10-05 15:31:07.698,-0.1468690236409505,
714,714,2856,2021-10-05 15:31:07.702,-0.2789465586344401,
715,715,2860,2021-10-05 15:31:07.706,-0.1783943176269531,
716,716,2864,2021-10-05 15:31:07.710,-0.1664415995279948,
717,717,2868,2021-10-05 15:31:07.714,-0.3071848551432292,
718,718,2872,2021-10-05 15:31:07.718,-0.1734638214111328,
719,719,2876,2021-10-05 15:31:07.722,-0.3285503387451172,
720,720,2880,2021-10-05 15:31:07.726,-0.2311356862386068,
721,721,2884,2021-10-05 15:31:07.730,-0.1924387613932291,
722,722,2888,2021-10-05 15:31:07.734,-0.2892557779947917,
723,723,2892,2021-10-05 15:31:07.738,-0.136111577351888,
724,724,2896,2021-10-05 15:31:07.742,-0.2926921844482422,
725,725,2900,2021-10-05 15:31:07.746,-0.2042420705159505,
726,726,2904,2021-10-05 15:31:07.750,-0.1858647664388021,
727,727,2908,2021-10-05 15:31:07.754,-0.294335683186849,
728,728,2912,2021-10-05 15:31:07.758,-0.1268482208251953,
729,729,2916,2021-10-05 15:31:07.762,-0.2738666534423828,
730,730,2920,2021-10-05 15:31:07.766,-0.1867612202962239,
731,731,2924,2021-10-05 15:31:07.770,-0.1815319061279297,
732,732,2928,2021-10-05 15:31:07.774,-0.3073342641194662,
733,733,2932,2021-10-05 15:31:07.778,-0.1618099212646484,
734,734,2936,2021-10-05 15:31:07.782,-0.3145058949788412,
735,735,2940,2021-10-05 15:31:07.786,-0.229193369547526,
736,736,2944,2021-10-05 15:31:07.790,-0.2027479807535807,
737,737,2948,2021-10-05 15:31:07.794,-0.3033002217610677,
738,738,2952,2021-10-05 15:31:07.798,-0.1299858093261719,
739,739,2956,2021-10-05 15:31:07.802,-0.2696832021077474,
740,740,2960,2021-10-05 15:31:07.806,-0.1827271779378255,
741,741,2964,2021-10-05 15:31:07.810,-0.1677862803141276,
742,742,2968,2021-10-05 15:31:07.814,-0.2959791819254557,
743,743,2972,2021-10-05 15:31:07.818,-0.1477654774983724,
744,744,2976,2021-10-05 15:31:07.822,-0.3025531768798828,
745,745,2980,2021-10-05 15:31:07.826,-0.2049891153971354,
746,746,2984,2021-10-05 15:31:07.830,-0.1882553100585937,
747,747,2988,2021-10-05 15:31:07.834,-0.3040472666422526,
748,748,2992,2021-10-05 15:31:07.838,-0.1450761159261067,
749,749,2996,2021-10-05 15:31:07.842,-0.2946345011393229,
750,750,3000,2021-10-05 15:31:07.846,-0.1973692576090495,
751,751,3004,2021-10-05 15:31:07.850,-0.1990127563476562,
752,752,3008,2021-10-05 15:31:07.854,-0.3309408823649089,
753,753,3012,2021-10-05 15:31:07.858,-0.1837730407714844,
754,754,3016,2021-10-05 15:31:07.862,-0.3304926554361979,
755,755,3020,2021-10-05 15:31:07.866,-0.2229181925455729,
756,756,3024,2021-10-05 15:31:07.870,-0.2018515268961588,
757,757,3028,2021-10-05 15:31:07.874,-0.3222751617431641,
758,758,3032,2021-10-05 15:31:07.878,-0.1597181955973307,
759,759,3036,2021-10-05 15:31:07.882,-0.2973238627115885,
760,760,3040,2021-10-05 15:31:07.886,-0.1900482177734375,
761,761,3044,2021-10-05 15:31:07.890,-0.1737626393636067,
762,762,3048,2021-10-05 15:31:07.894,-0.2900028228759766,
763,763,3052,2021-10-05 15:31:07.898,-0.1193777720133463,
764,764,3056,2021-10-05 15:31:07.902,-0.2613162994384766,
765,765,3060,2021-10-05 15:31:07.906,-0.1622581481933594,
766,766,3064,2021-10-05 15:31:07.910,-0.1559829711914062,
767,767,3068,2021-10-05 15:31:07.914,-0.2759583791097005,
768,768,3072,2021-10-05 15:31:07.918,-0.1051839192708333,
769,769,3076,2021-10-05 15:31:07.922,-0.2469730377197266,
770,770,3080,2021-10-05 15:31:07.926,-0.1592699686686198,
771,771,3084,2021-10-05 15:31:07.930,-0.1555347442626953,
772,772,3088,2021-10-05 15:31:07.934,-0.2790959676106771,
773,773,3092,2021-10-05 15:31:07.938,-0.114596684773763,
774,774,3096,2021-10-05 15:31:07.942,-0.258029301961263,
775,775,3100,2021-10-05 15:31:07.946,-0.1679356892903646,
776,776,3104,2021-10-05 15:31:07.950,-0.1692803700764974,
777,777,3108,2021-10-05 15:31:07.954,-0.2994155883789063,
778,778,3112,2021-10-05 15:31:07.958,-0.1497077941894531,
779,779,3116,2021-10-05 15:31:07.962,-0.2995649973551432,
780,780,3120,2021-10-05 15:31:07.966,-0.2008056640625,
781,781,3124,2021-10-05 15:31:07.970,-0.1907952626546224,
782,782,3128,2021-10-05 15:31:07.974,-0.3177928924560547,
783,783,3132,2021-10-05 15:31:07.978,-0.1656945546468099,
784,784,3136,2021-10-05 15:31:07.982,-0.322573979695638,
785,785,3140,2021-10-05 15:31:07.986,-0.2251593271891276,
786,786,3144,2021-10-05 15:31:07.990,-0.1818307240804036,
787,787,3148,2021-10-05 15:31:07.994,-0.2843252817789714,
788,788,3152,2021-10-05 15:31:07.998,-0.122067133585612,
789,789,3156,2021-10-05 15:31:08.002,-0.2777512868245443,
790,790,3160,2021-10-05 15:31:08.006,-0.1972198486328125,
791,791,3164,2021-10-05 15:31:08.010,-0.1848189036051432,
792,792,3168,2021-10-05 15:31:08.014,-0.3024037679036458,
793,793,3172,2021-10-05 15:31:08.018,-0.1371574401855469,
794,794,3176,2021-10-05 15:31:08.022,-0.2911980946858724,
795,795,3180,2021-10-05 15:31:08.026,-0.207977294921875,
796,796,3184,2021-10-05 15:31:08.030,-0.1884047190348307,
797,797,3188,2021-10-05 15:31:08.034,-0.2956803639729818,
798,798,3192,2021-10-05 15:31:08.038,-0.1344680786132812,
799,799,3196,2021-10-05 15:31:08.042,-0.2897040049235026,
800,800,3200,2021-10-05 15:31:08.046,-0.2052879333496094,
801,801,3204,2021-10-05 15:31:08.050,-0.1818307240804036,
802,802,3208,2021-10-05 15:31:08.054,-0.287164052327474,
803,803,3212,2021-10-05 15:31:08.058,-0.1269976298014323,
804,804,3216,2021-10-05 15:31:08.062,-0.2838770548502604,
805,805,3220,2021-10-05 15:31:08.066,-0.1946798960367838,
806,806,3224,2021-10-05 15:31:08.070,-0.1782449086507161,
807,807,3228,2021-10-05 15:31:08.074,-0.2967262268066407,
808,808,3232,2021-10-05 15:31:08.078,-0.1319281260172526,
809,809,3236,2021-10-05 15:31:08.082,-0.2783489227294922,
810,810,3240,2021-10-05 15:31:08.086,-0.1946798960367838,
811,811,3244,2021-10-05 15:31:08.090,-0.1922893524169922,
812,812,3248,2021-10-05 15:31:08.094,-0.3109200795491537,
813,813,3252,2021-10-05 15:31:08.098,-0.1492595672607422,
814,814,3256,2021-10-05 15:31:08.102,-0.2967262268066407,
815,815,3260,2021-10-05 15:31:08.106,-0.200656255086263,
816,816,3264,2021-10-05 15:31:08.110,-0.1724179585774739,
817,817,3268,2021-10-05 15:31:08.114,-0.2770042419433594,
818,818,3272,2021-10-05 15:31:08.118,-0.1110108693440755,
819,819,3276,2021-10-05 15:31:08.122,-0.2686373392740885,
820,820,3280,2021-10-05 15:31:08.126,-0.1872094472249349,
821,821,3284,2021-10-05 15:31:08.130,-0.1757049560546875,
822,822,3288,2021-10-05 15:31:08.134,-0.2819347381591797,
823,823,3292,2021-10-05 15:31:08.138,-0.1159413655598958,
824,824,3296,2021-10-05 15:31:08.142,-0.2802912394205729,
825,825,3300,2021-10-05 15:31:08.146,-0.2108160654703776,
826,826,3304,2021-10-05 15:31:08.150,-0.2138042449951172,
827,827,3308,2021-10-05 15:31:08.154,-0.337514877319336,
828,828,3312,2021-10-05 15:31:08.158,-0.1707744598388672,
829,829,3316,2021-10-05 15:31:08.162,-0.308828353881836,
830,830,3320,2021-10-05 15:31:08.166,-0.3027025858561198,
831,831,3324,2021-10-05 15:31:08.170,-0.1627063751220703,
832,832,3328,2021-10-05 15:31:08.174,-0.308678944905599,
833,833,3332,2021-10-05 15:31:08.178,-0.1373068491617838,
834,834,3336,2021-10-05 15:31:08.182,-0.1973692576090495,
835,835,3340,2021-10-05 15:31:08.186,-0.2197806040445963,
836,836,3344,2021-10-05 15:31:08.190,-0.1238600413004557,
837,837,3348,2021-10-05 15:31:08.194,-0.3006108601888021,
838,838,3352,2021-10-05 15:31:08.198,-0.1591205596923828,
839,839,3356,2021-10-05 15:31:08.202,-0.2498118082682291,
840,840,3360,2021-10-05 15:31:08.206,-0.294036865234375,
841,841,3364,2021-10-05 15:31:08.210,-0.1888529459635416,
842,842,3368,2021-10-05 15:31:08.214,-0.2575810750325521,
843,843,3372,2021-10-05 15:31:08.218,0.1139990488688151,
844,844,3376,2021-10-05 15:31:08.222,0.27252197265625,
845,845,3380,2021-10-05 15:31:08.226,0.3890609741210938,
846,846,3384,2021-10-05 15:31:08.230,0.4937966664632162,
847,847,3388,2021-10-05 15:31:08.234,0.0730609893798828,
848,848,3392,2021-10-05 15:31:08.238,-0.3097248077392578,
849,849,3396,2021-10-05 15:31:08.242,-0.9671243031819664,
850,850,3400,2021-10-05 15:31:08.246,-1.4181900024414065,
851,851,3404,2021-10-05 15:31:08.250,-1.247564951578776,
852,852,3408,2021-10-05 15:31:08.254,-0.9592056274414064,
853,853,3412,2021-10-05 15:31:08.258,-0.3467782338460287,
854,854,3416,2021-10-05 15:31:08.262,-0.1238600413004557,
855,855,3420,2021-10-05 15:31:08.266,-0.0451215108235677,
856,856,3424,2021-10-05 15:31:08.270,0.0472132364908854,
857,857,3428,2021-10-05 15:31:08.274,-0.1512018839518229,
858,858,3432,2021-10-05 15:31:08.278,-0.0122515360514322,
859,859,3436,2021-10-05 15:31:08.282,-0.0941276550292968,
860,860,3440,2021-10-05 15:31:08.286,-0.0990581512451172,
861,861,3444,2021-10-05 15:31:08.290,-0.0034364064534505,
862,862,3448,2021-10-05 15:31:08.294,-0.1854165395100911,
863,863,3452,2021-10-05 15:31:08.298,-0.0431791941324869,
864,864,3456,2021-10-05 15:31:08.302,-0.1340198516845703,
865,865,3460,2021-10-05 15:31:08.306,-0.157477060953776,
866,866,3464,2021-10-05 15:31:08.310,-0.078439712524414,
867,867,3468,2021-10-05 15:31:08.314,-0.2605692545572917,
868,868,3472,2021-10-05 15:31:08.318,-0.114895502726237,
869,869,3476,2021-10-05 15:31:08.322,-0.2085749308268229,
870,870,3480,2021-10-05 15:31:08.326,-0.2403990427652995,
871,871,3484,2021-10-05 15:31:08.330,-0.1471678415934245,
872,872,3488,2021-10-05 15:31:08.334,-0.3212292989095052,
873,873,3492,2021-10-05 15:31:08.338,-0.1600170135498047,
874,874,3496,2021-10-05 15:31:08.342,-0.2374108632405599,
875,875,3500,2021-10-05 15:31:08.346,-0.2641550699869792,
876,876,3504,2021-10-05 15:31:08.350,-0.1630051930745442,
877,877,3508,2021-10-05 15:31:08.354,-0.3248151143391927,
878,878,3512,2021-10-05 15:31:08.358,-0.1640510559082031,
879,879,3516,2021-10-05 15:31:08.362,-0.2480189005533854,
880,880,3520,2021-10-05 15:31:08.366,-0.2614657084147135,
881,881,3524,2021-10-05 15:31:08.370,-0.1567300160725911,
882,882,3528,2021-10-05 15:31:08.374,-0.3201834360758464,
883,883,3532,2021-10-05 15:31:08.378,-0.1628557840983073,
884,884,3536,2021-10-05 15:31:08.382,-0.2420425415039062,
885,885,3540,2021-10-05 15:31:08.386,-0.2574316660563151,
886,886,3544,2021-10-05 15:31:08.390,-0.1582241058349609,
887,887,3548,2021-10-05 15:31:08.394,-0.3275044759114583,
888,888,3552,2021-10-05 15:31:08.398,-0.1671886444091797,
889,889,3556,2021-10-05 15:31:08.402,-0.2389049530029297,
890,890,3560,2021-10-05 15:31:08.406,-0.2468236287434896,
891,891,3564,2021-10-05 15:31:08.410,-0.1410420735677083,
892,892,3568,2021-10-05 15:31:08.414,-0.3097248077392578,
893,893,3572,2021-10-05 15:31:08.418,-0.1465702056884766,
894,894,3576,2021-10-05 15:31:08.422,-0.2314345041910807,
895,895,3580,2021-10-05 15:31:08.426,-0.2516047159830729,
896,896,3584,2021-10-05 15:31:08.430,-0.1559829711914062,
897,897,3588,2021-10-05 15:31:08.434,-0.3254127502441407,
898,898,3592,2021-10-05 15:31:08.438,-0.1580746968587239,
899,899,3596,2021-10-05 15:31:08.442,-0.2326297760009766,
900,900,3600,2021-10-05 15:31:08.446,-0.243686040242513,
901,901,3604,2021-10-05 15:31:08.450,-0.1310316721598307,
902,902,3608,2021-10-05 15:31:08.454,-0.3067366282145182,
903,903,3612,2021-10-05 15:31:08.458,-0.1668898264567057,
904,904,3616,2021-10-05 15:31:08.462,-0.2568340301513672,
905,905,3620,2021-10-05 15:31:08.466,-0.2684879302978516,
906,906,3624,2021-10-05 15:31:08.470,-0.1597181955973307,
907,907,3628,2021-10-05 15:31:08.474,-0.322723388671875,
908,908,3632,2021-10-05 15:31:08.478,-0.1565806070963541,
909,909,3636,2021-10-05 15:31:08.482,-0.2468236287434896,
910,910,3640,2021-10-05 15:31:08.486,-0.2764066060384115,
911,911,3644,2021-10-05 15:31:08.490,-0.1819801330566406,
912,912,3648,2021-10-05 15:31:08.494,-0.3487205505371094,
913,913,3652,2021-10-05 15:31:08.498,-0.1815319061279297,
914,914,3656,2021-10-05 15:31:08.502,-0.2550411224365235,
915,915,3660,2021-10-05 15:31:08.506,-0.2749125162760417,
916,916,3664,2021-10-05 15:31:08.510,-0.178991953531901,
917,917,3668,2021-10-05 15:31:08.514,-0.337514877319336,
918,918,3672,2021-10-05 15:31:08.518,-0.1606146494547526,
919,919,3676,2021-10-05 15:31:08.522,-0.2345720926920573,
920,920,3680,2021-10-05 15:31:08.526,-0.2475706736246745,
921,921,3684,2021-10-05 15:31:08.530,-0.1352151234944661,
922,922,3688,2021-10-05 15:31:08.534,-0.294335683186849,
923,923,3692,2021-10-05 15:31:08.538,-0.1308822631835937,
924,924,3696,2021-10-05 15:31:08.542,-0.2115631103515625,
925,925,3700,2021-10-05 15:31:08.546,-0.2193323771158854,
926,926,3704,2021-10-05 15:31:08.550,-0.1129531860351562,
927,927,3708,2021-10-05 15:31:08.554,-0.2719243367513021,
928,928,3712,2021-10-05 15:31:08.558,-0.1036898295084635,
929,929,3716,2021-10-05 15:31:08.562,-0.1831754048665364,
930,930,3720,2021-10-05 15:31:08.566,-0.2112642923990885,
931,931,3724,2021-10-05 15:31:08.570,-0.128790537516276,
932,932,3728,2021-10-05 15:31:08.574,-0.3131612141927083,
933,933,3732,2021-10-05 15:31:08.578,-0.1653957366943359,
934,934,3736,2021-10-05 15:31:08.582,-0.2426401774088541,
935,935,3740,2021-10-05 15:31:08.586,-0.2577304840087891,
936,936,3744,2021-10-05 15:31:08.590,-0.1456737518310547,
937,937,3748,2021-10-05 15:31:08.594,-0.3061389923095703,
938,938,3752,2021-10-05 15:31:08.598,-0.1550865173339844,
939,939,3756,2021-10-05 15:31:08.602,-0.2402496337890625,
940,940,3760,2021-10-05 15:31:08.606,-0.2635574340820313,
941,941,3764,2021-10-05 15:31:08.610,-0.1634534200032552,
942,942,3768,2021-10-05 15:31:08.614,-0.323171615600586,
943,943,3772,2021-10-05 15:31:08.618,-0.1594193776448567,
944,944,3776,2021-10-05 15:31:08.622,-0.2300898234049479,
945,945,3780,2021-10-05 15:31:08.626,-0.2409966786702474,
946,946,3784,2021-10-05 15:31:08.630,-0.1347668965657552,
947,947,3788,2021-10-05 15:31:08.634,-0.3058401743570964,
948,948,3792,2021-10-05 15:31:08.638,-0.1586723327636719,
949,949,3796,2021-10-05 15:31:08.642,-0.2495129903157552,
950,950,3800,2021-10-05 15:31:08.646,-0.2783489227294922,
951,951,3804,2021-10-05 15:31:08.650,-0.1788425445556641,
952,952,3808,2021-10-05 15:31:08.654,-0.3279527028401693,
953,953,3812,2021-10-05 15:31:08.658,-0.1534430185953776,
954,954,3816,2021-10-05 15:31:08.662,-0.2315839131673177,
955,955,3820,2021-10-05 15:31:08.666,-0.2523517608642578,
956,956,3824,2021-10-05 15:31:08.670,-0.1395479838053385,
957,957,3828,2021-10-05 15:31:08.674,-0.308081309000651,
958,958,3832,2021-10-05 15:31:08.678,-0.1483631134033203,
959,959,3836,2021-10-05 15:31:08.682,-0.2395025889078776,
960,960,3840,2021-10-05 15:31:08.686,-0.2610174814860026,
961,961,3844,2021-10-05 15:31:08.690,-0.1541900634765625,
962,962,3848,2021-10-05 15:31:08.694,-0.3076330820719401,
963,963,3852,2021-10-05 15:31:08.698,-0.1358127593994141,
964,964,3856,2021-10-05 15:31:08.702,-0.2160453796386719,
965,965,3860,2021-10-05 15:31:08.706,-0.2378590901692708,
966,966,3864,2021-10-05 15:31:08.710,-0.1388009389241536,
967,967,3868,2021-10-05 15:31:08.714,-0.3115177154541016,
968,968,3872,2021-10-05 15:31:08.718,-0.1516501108805338,
969,969,3876,2021-10-05 15:31:08.722,-0.236365000406901,
970,970,3880,2021-10-05 15:31:08.726,-0.2520529429117839,
971,971,3884,2021-10-05 15:31:08.730,-0.1464207967122396,
972,972,3888,2021-10-05 15:31:08.734,-0.3168964385986328,
973,973,3892,2021-10-05 15:31:08.738,-0.1664415995279948,
974,974,3896,2021-10-05 15:31:08.742,-0.2516047159830729,
975,975,3900,2021-10-05 15:31:08.746,-0.2675914764404297,
976,976,3904,2021-10-05 15:31:08.750,-0.1509030659993489,
977,977,3908,2021-10-05 15:31:08.754,-0.3038978576660157,
978,978,3912,2021-10-05 15:31:08.758,-0.1386515299479166,
979,979,3916,2021-10-05 15:31:08.762,-0.2274004618326823,
980,980,3920,2021-10-05 15:31:08.766,-0.2575810750325521,
981,981,3924,2021-10-05 15:31:08.770,-0.150753657023112,
982,982,3928,2021-10-05 15:31:08.774,-0.3107706705729167,
983,983,3932,2021-10-05 15:31:08.778,-0.1462713877360026,
984,984,3936,2021-10-05 15:31:08.782,-0.2357673645019531,
985,985,3940,2021-10-05 15:31:08.786,-0.2605692545572917,
986,986,3944,2021-10-05 15:31:08.790,-0.1550865173339844,
987,987,3948,2021-10-05 15:31:08.794,-0.3027025858561198,
988,988,3952,2021-10-05 15:31:08.798,-0.1178836822509765,
989,989,3956,2021-10-05 15:31:08.802,-0.1982657114664713,
990,990,3960,2021-10-05 15:31:08.806,-0.2414449055989583,
991,991,3964,2021-10-05 15:31:08.810,-0.1630051930745442,
992,992,3968,2021-10-05 15:31:08.814,-0.3502146402994792,
993,993,3972,2021-10-05 15:31:08.818,-0.1913928985595703,
994,994,3976,2021-10-05 15:31:08.822,-0.2550411224365235,
995,995,3980,2021-10-05 15:31:08.826,-0.2557881673177083,
996,996,3984,2021-10-05 15:31:08.830,-0.1544888814290364,
997,997,3988,2021-10-05 15:31:08.834,-0.3310902913411458,
998,998,3992,2021-10-05 15:31:08.838,-0.1613616943359375,
999,999,3996,2021-10-05 15:31:08.842,-0.2155971527099609,
1000,1000,4000,2021-10-05 15:31:08.846,-0.229193369547526,
1001,1001,4004,2021-10-05 15:31:08.850,-0.1376056671142578,
1002,1002,4008,2021-10-05 15:31:08.854,-0.3110694885253907,
1003,1003,4012,2021-10-05 15:31:08.858,-0.1471678415934245,
1004,1004,4016,2021-10-05 15:31:08.862,-0.2442836761474609,
1005,1005,4020,2021-10-05 15:31:08.866,-0.2903016408284505,
1006,1006,4024,2021-10-05 15:31:08.870,-0.1975186665852865,
1007,1007,4028,2021-10-05 15:31:08.874,-0.2823829650878907,
1008,1008,4032,2021-10-05 15:31:08.878,0.0797843933105468,
1009,1009,4036,2021-10-05 15:31:08.882,0.236365000406901,
1010,1010,4040,2021-10-05 15:31:08.886,0.3653049468994141,
1011,1011,4044,2021-10-05 15:31:08.890,0.502611796061198,
1012,1012,4048,2021-10-05 15:31:08.894,0.1555347442626953,
1013,1013,4052,2021-10-05 15:31:08.898,-0.1988633473714193,
1014,1014,4056,2021-10-05 15:31:08.902,-0.8856964111328126,
1015,1015,4060,2021-10-05 15:31:08.906,-1.4035479227701824,
1016,1016,4064,2021-10-05 15:31:08.910,-1.3195800781250002,
1017,1017,4068,2021-10-05 15:31:08.914,-1.0637919108072915,
1018,1018,4072,2021-10-05 15:31:08.918,-0.4389635721842448,
1019,1019,4076,2021-10-05 15:31:08.922,-0.1761531829833984,
1020,1020,4080,2021-10-05 15:31:08.926,-0.0552813212076822,
1021,1021,4084,2021-10-05 15:31:08.930,0.0593153635660807,
1022,1022,4088,2021-10-05 15:31:08.934,-0.1311810811360677,
1023,1023,4092,2021-10-05 15:31:08.938,0.0158373514811197,
1024,1024,4096,2021-10-05 15:31:08.942,-0.0670846303304036,
1025,1025,4100,2021-10-05 15:31:08.946,-0.0945758819580078,
1026,1026,4104,2021-10-05 15:31:08.950,-0.0077692667643229,
1027,1027,4108,2021-10-05 15:31:08.954,-0.1785437266031901,
1028,1028,4112,2021-10-05 15:31:08.958,-0.0216643015543619,
1029,1029,4116,2021-10-05 15:31:08.962,-0.1201248168945312,
1030,1030,4120,2021-10-05 15:31:08.966,-0.1662921905517578,
1031,1031,4124,2021-10-05 15:31:08.970,-0.0953229268391927,
1032,1032,4128,2021-10-05 15:31:08.974,-0.2832794189453125,
1033,1033,4132,2021-10-05 15:31:08.978,-0.1190789540608724,
1034,1034,4136,2021-10-05 15:31:08.982,-0.2042420705159505,
1035,1035,4140,2021-10-05 15:31:08.986,-0.2341238657633463,
1036,1036,4144,2021-10-05 15:31:08.990,-0.1385021209716797,
1037,1037,4148,2021-10-05 15:31:08.994,-0.3182411193847657,
1038,1038,4152,2021-10-05 15:31:08.998,-0.1600170135498047,
1039,1039,4156,2021-10-05 15:31:09.002,-0.2395025889078776,
1040,1040,4160,2021-10-05 15:31:09.006,-0.2572822570800782,
1041,1041,4164,2021-10-05 15:31:09.010,-0.1573276519775391,
1042,1042,4168,2021-10-05 15:31:09.014,-0.3209304809570313,
1043,1043,4172,2021-10-05 15:31:09.018,-0.1498572031656901,
1044,1044,4176,2021-10-05 15:31:09.022,-0.2395025889078776,
1045,1045,4180,2021-10-05 15:31:09.026,-0.272372563680013,
1046,1046,4184,2021-10-05 15:31:09.030,-0.1786931355794271,
1047,1047,4188,2021-10-05 15:31:09.034,-0.337216059366862,
1048,1048,4192,2021-10-05 15:31:09.038,-0.1516501108805338,
1049,1049,4196,2021-10-05 15:31:09.042,-0.2215735117594401,
1050,1050,4200,2021-10-05 15:31:09.046,-0.2323309580485026,
1051,1051,4204,2021-10-05 15:31:09.050,-0.1301352183024088,
1052,1052,4208,2021-10-05 15:31:09.054,-0.3101730346679688,
1053,1053,4212,2021-10-05 15:31:09.058,-0.1470184326171875,
1054,1054,4216,2021-10-05 15:31:09.062,-0.2323309580485026,
1055,1055,4220,2021-10-05 15:31:09.066,-0.2519035339355469,
1056,1056,4224,2021-10-05 15:31:09.070,-0.1476160685221354,
1057,1057,4228,2021-10-05 15:31:09.074,-0.3200340270996094,
1058,1058,4232,2021-10-05 15:31:09.078,-0.1494089762369791,
1059,1059,4236,2021-10-05 15:31:09.082,-0.2389049530029297,
1060,1060,4240,2021-10-05 15:31:09.086,-0.2610174814860026,
1061,1061,4244,2021-10-05 15:31:09.090,-0.1595687866210937,
1062,1062,4248,2021-10-05 15:31:09.094,-0.3239186604817708,
1063,1063,4252,2021-10-05 15:31:09.098,-0.1553853352864583,
1064,1064,4256,2021-10-05 15:31:09.102,-0.2380084991455078,
1065,1065,4260,2021-10-05 15:31:09.106,-0.2545928955078125,
1066,1066,4264,2021-10-05 15:31:09.110,-0.1544888814290364,
1067,1067,4268,2021-10-05 15:31:09.114,-0.3248151143391927,
1068,1068,4272,2021-10-05 15:31:09.118,-0.1630051930745442,
1069,1069,4276,2021-10-05 15:31:09.122,-0.2483177185058594,
1070,1070,4280,2021-10-05 15:31:09.126,-0.258029301961263,
1071,1071,4284,2021-10-05 15:31:09.130,-0.1470184326171875,
1072,1072,4288,2021-10-05 15:31:09.134,-0.3207810719807943,
1073,1073,4292,2021-10-05 15:31:09.138,-0.164798100789388,
1074,1074,4296,2021-10-05 15:31:09.142,-0.2572822570800782,
1075,1075,4300,2021-10-05 15:31:09.146,-0.2844746907552083,
1076,1076,4304,2021-10-05 15:31:09.150,-0.1878070831298828,
1077,1077,4308,2021-10-05 15:31:09.154,-0.372625986735026,
1078,1078,4312,2021-10-05 15:31:09.158,-0.222021738688151,
1079,1079,4316,2021-10-05 15:31:09.162,-0.2906004587809245,
1080,1080,4320,2021-10-05 15:31:09.166,-0.3653049468994141,
1081,1081,4324,2021-10-05 15:31:09.170,-0.1414903004964192,
1082,1082,4328,2021-10-05 15:31:09.174,-0.2671432495117188,
1083,1083,4332,2021-10-05 15:31:09.178,-0.1769002278645833,
1084,1084,4336,2021-10-05 15:31:09.182,-0.1890023549397786,
1085,1085,4340,2021-10-05 15:31:09.186,-0.3136094411214193,
1086,1086,4344,2021-10-05 15:31:09.190,-0.1317787170410156,
1087,1087,4348,2021-10-05 15:31:09.194,-0.2666950225830078,
1088,1088,4352,2021-10-05 15:31:09.198,-0.1543394724527995,
1089,1089,4356,2021-10-05 15:31:09.202,-0.1314798990885416,
1090,1090,4360,2021-10-05 15:31:09.206,-0.2532482147216797,
1091,1091,4364,2021-10-05 15:31:09.210,-0.0881512959798177,
1092,1092,4368,2021-10-05 15:31:09.214,-0.2466742197672526,
1093,1093,4372,2021-10-05 15:31:09.218,-0.1517995198567708,
1094,1094,4376,2021-10-05 15:31:09.222,-0.1462713877360026,
1095,1095,4380,2021-10-05 15:31:09.226,-0.2840264638264974,
1096,1096,4384,2021-10-05 15:31:09.230,-0.114447275797526,
1097,1097,4388,2021-10-05 15:31:09.234,-0.2602704366048177,
1098,1098,4392,2021-10-05 15:31:09.238,-0.1749579111735026,
1099,1099,4396,2021-10-05 15:31:09.242,-0.1743602752685547,
1100,1100,4400,2021-10-05 15:31:09.246,-0.2967262268066407,
1101,1101,4404,2021-10-05 15:31:09.250,-0.1199754079182942,
1102,1102,4408,2021-10-05 15:31:09.254,-0.2716255187988282,
1103,1103,4412,2021-10-05 15:31:09.258,-0.1818307240804036,
1104,1104,4416,2021-10-05 15:31:09.262,-0.1783943176269531,
1105,1105,4420,2021-10-05 15:31:09.266,-0.2964274088541667,
1106,1106,4424,2021-10-05 15:31:09.270,-0.1308822631835937,
1107,1107,4428,2021-10-05 15:31:09.274,-0.2885087331136068,
1108,1108,4432,2021-10-05 15:31:09.278,-0.2021503448486328,
1109,1109,4436,2021-10-05 15:31:09.282,-0.2000586191813151,
1110,1110,4440,2021-10-05 15:31:09.286,-0.3185399373372396,
1111,1111,4444,2021-10-05 15:31:09.290,-0.1480642954508463,
1112,1112,4448,2021-10-05 15:31:09.294,-0.3047943115234375,
1113,1113,4452,2021-10-05 15:31:09.298,-0.2155971527099609,
1114,1114,4456,2021-10-05 15:31:09.302,-0.2025985717773437,
1115,1115,4460,2021-10-05 15:31:09.306,-0.3201834360758464,
1116,1116,4464,2021-10-05 15:31:09.310,-0.1597181955973307,
1117,1117,4468,2021-10-05 15:31:09.314,-0.308828353881836,
1118,1118,4472,2021-10-05 15:31:09.318,-0.2025985717773437,
1119,1119,4476,2021-10-05 15:31:09.322,-0.1854165395100911,
1120,1120,4480,2021-10-05 15:31:09.326,-0.3052425384521485,
1121,1121,4484,2021-10-05 15:31:09.330,-0.1456737518310547,
1122,1122,4488,2021-10-05 15:31:09.334,-0.2965768178304037,
1123,1123,4492,2021-10-05 15:31:09.338,-0.1958751678466797,
1124,1124,4496,2021-10-05 15:31:09.342,-0.1876576741536458,
1125,1125,4500,2021-10-05 15:31:09.346,-0.3071848551432292,
1126,1126,4504,2021-10-05 15:31:09.350,-0.1353645324707031,
1127,1127,4508,2021-10-05 15:31:09.354,-0.2820841471354167,
1128,1128,4512,2021-10-05 15:31:09.358,-0.1733144124348958,
1129,1129,4516,2021-10-05 15:31:09.362,-0.1371574401855469,
1130,1130,4520,2021-10-05 15:31:09.366,-0.2698326110839844,
1131,1131,4524,2021-10-05 15:31:09.370,-0.1295375823974609,
1132,1132,4528,2021-10-05 15:31:09.374,-0.2947839101155599,
1133,1133,4532,2021-10-05 15:31:09.378,-0.1981163024902344,
1134,1134,4536,2021-10-05 15:31:09.382,-0.1733144124348958,
1135,1135,4540,2021-10-05 15:31:09.386,-0.279693603515625,
1136,1136,4544,2021-10-05 15:31:09.390,-0.1104132334391276,
1137,1137,4548,2021-10-05 15:31:09.394,-0.2743148803710938,
1138,1138,4552,2021-10-05 15:31:09.398,-0.1875082651774088,
1139,1139,4556,2021-10-05 15:31:09.402,-0.1807848612467448,
1140,1140,4560,2021-10-05 15:31:09.406,-0.2900028228759766,
1141,1141,4564,2021-10-05 15:31:09.410,-0.1162401835123698,
1142,1142,4568,2021-10-05 15:31:09.414,-0.2819347381591797,
1143,1143,4572,2021-10-05 15:31:09.418,-0.2175394694010416,
1144,1144,4576,2021-10-05 15:31:09.422,-0.2314345041910807,
1145,1145,4580,2021-10-05 15:31:09.426,-0.3706836700439453,
1146,1146,4584,2021-10-05 15:31:09.430,-0.1987139383951823,
1147,1147,4588,2021-10-05 15:31:09.434,-0.3267574310302735,
1148,1148,4592,2021-10-05 15:31:09.438,-0.2012538909912109,
1149,1149,4596,2021-10-05 15:31:09.442,-0.1736132303873698,
1150,1150,4600,2021-10-05 15:31:09.446,-0.2855205535888672,
1151,1151,4604,2021-10-05 15:31:09.450,-0.1093673706054687,
1152,1152,4608,2021-10-05 15:31:09.454,-0.2517541249593099,
1153,1153,4612,2021-10-05 15:31:09.458,-0.1706250508626302,
1154,1154,4616,2021-10-05 15:31:09.462,-0.1730155944824219,
1155,1155,4620,2021-10-05 15:31:09.466,-0.2979214986165365,
1156,1156,4624,2021-10-05 15:31:09.470,-0.1349163055419922,
1157,1157,4628,2021-10-05 15:31:09.474,-0.2660973866780599,
1158,1158,4632,2021-10-05 15:31:09.478,-0.1766014099121094,
1159,1159,4636,2021-10-05 15:31:09.482,-0.1852671305338541,
1160,1160,4640,2021-10-05 15:31:09.486,-0.322872797648112,
1161,1161,4644,2021-10-05 15:31:09.490,-0.1786931355794271,
1162,1162,4648,2021-10-05 15:31:09.494,-0.3285503387451172,
1163,1163,4652,2021-10-05 15:31:09.498,-0.2466742197672526,
1164,1164,4656,2021-10-05 15:31:09.502,-0.2215735117594401,
1165,1165,4660,2021-10-05 15:31:09.506,-0.3276538848876953,
1166,1166,4664,2021-10-05 15:31:09.510,-0.1468690236409505,
1167,1167,4668,2021-10-05 15:31:09.514,-0.2705796559651693,
1168,1168,4672,2021-10-05 15:31:09.518,-0.1621087392171224,
1169,1169,4676,2021-10-05 15:31:09.522,-0.1437314351399739,
1170,1170,4680,2021-10-05 15:31:09.526,-0.2604198455810547,
1171,1171,4684,2021-10-05 15:31:09.530,-0.0980122884114583,
1172,1172,4688,2021-10-05 15:31:09.534,-0.2598222096761068,
1173,1173,4692,2021-10-05 15:31:09.538,-0.1970704396565755,
1174,1174,4696,2021-10-05 15:31:09.542,-0.2132066090901693,
1175,1175,4700,2021-10-05 15:31:09.546,-0.308828353881836,
1176,1176,4704,2021-10-05 15:31:09.550,-0.0128491719563802,
1177,1177,4708,2021-10-05 15:31:09.554,0.0760491689046224,
1178,1178,4712,2021-10-05 15:31:09.558,0.3699366251627604,
1179,1179,4716,2021-10-05 15:31:09.562,0.502312978108724,
1180,1180,4720,2021-10-05 15:31:09.566,0.3388595581054688,
1181,1181,4724,2021-10-05 15:31:09.570,0.1556841532389323,
1182,1182,4728,2021-10-05 15:31:09.574,-0.5647659301757814,
1183,1183,4732,2021-10-05 15:31:09.578,-1.1289342244466147,
1184,1184,4736,2021-10-05 15:31:09.582,-1.4552434285481772,
1185,1185,4740,2021-10-05 15:31:09.586,-1.3688850402832031,
1186,1186,4744,2021-10-05 15:31:09.590,-0.7194042205810548,
1187,1187,4748,2021-10-05 15:31:09.594,-0.3957843780517578,
1188,1188,4752,2021-10-05 15:31:09.598,-0.0561777750651041,
1189,1189,4756,2021-10-05 15:31:09.602,0.0342146555582682,
1190,1190,4760,2021-10-05 15:31:09.606,-0.107425053914388,
1191,1191,4764,2021-10-05 15:31:09.610,0.0328699747721354,
1192,1192,4768,2021-10-05 15:31:09.614,-0.1295375823974609,
1193,1193,4772,2021-10-05 15:31:09.618,-0.042880376180013,
1194,1194,4776,2021-10-05 15:31:09.622,-0.0333182017008463,
1195,1195,4780,2021-10-05 15:31:09.626,-0.164648691813151,
1196,1196,4784,2021-10-05 15:31:09.630,-0.0189749399820963,
1197,1197,4788,2021-10-05 15:31:09.634,-0.1810836791992187,
1198,1198,4792,2021-10-05 15:31:09.638,-0.0989087422688802,
1199,1199,4796,2021-10-05 15:31:09.642,-0.0975640614827474,
1200,1200,4800,2021-10-05 15:31:09.646,-0.2405484517415365,
1201,1201,4804,2021-10-05 15:31:09.650,-0.0881512959798177,
1202,1202,4808,2021-10-05 15:31:09.654,-0.250857671101888,
1203,1203,4812,2021-10-05 15:31:09.658,-0.1757049560546875,
1204,1204,4816,2021-10-05 15:31:09.662,-0.1739120483398437,
1205,1205,4820,2021-10-05 15:31:09.666,-0.2973238627115885,
1206,1206,4824,2021-10-05 15:31:09.670,-0.1316293080647786,
1207,1207,4828,2021-10-05 15:31:09.674,-0.280141830444336,
1208,1208,4832,2021-10-05 15:31:09.678,-0.1994609832763672,
1209,1209,4836,2021-10-05 15:31:09.682,-0.1931858062744141,
1210,1210,4840,2021-10-05 15:31:09.686,-0.3112188975016276,
1211,1211,4844,2021-10-05 15:31:09.690,-0.1425361633300781,
1212,1212,4848,2021-10-05 15:31:09.694,-0.2888075510660807,
1213,1213,4852,2021-10-05 15:31:09.698,-0.1972198486328125,
1214,1214,4856,2021-10-05 15:31:09.702,-0.1876576741536458,
1215,1215,4860,2021-10-05 15:31:09.706,-0.3140576680501302,
1216,1216,4864,2021-10-05 15:31:09.710,-0.1468690236409505,
1217,1217,4868,2021-10-05 15:31:09.714,-0.2988179524739583,
1218,1218,4872,2021-10-05 15:31:09.718,-0.2093219757080078,
1219,1219,4876,2021-10-05 15:31:09.722,-0.1884047190348307,
1220,1220,4880,2021-10-05 15:31:09.726,-0.3127129872639974,
1221,1221,4884,2021-10-05 15:31:09.730,-0.1471678415934245,
1222,1222,4888,2021-10-05 15:31:09.734,-0.2971744537353516,
1223,1223,4892,2021-10-05 15:31:09.738,-0.2022997538248698,
1224,1224,4896,2021-10-05 15:31:09.742,-0.1760037740071614,
1225,1225,4900,2021-10-05 15:31:09.746,-0.2983697255452474,
1226,1226,4904,2021-10-05 15:31:09.750,-0.1413408915201823,
1227,1227,4908,2021-10-05 15:31:09.754,-0.2998638153076172,
1228,1228,4912,2021-10-05 15:31:09.758,-0.2049891153971354,
1229,1229,4916,2021-10-05 15:31:09.762,-0.179141362508138,
1230,1230,4920,2021-10-05 15:31:09.766,-0.2826817830403646,
1231,1231,4924,2021-10-05 15:31:09.770,-0.1166884104410807,
1232,1232,4928,2021-10-05 15:31:09.774,-0.2738666534423828,
1233,1233,4932,2021-10-05 15:31:09.778,-0.186163584391276,
1234,1234,4936,2021-10-05 15:31:09.782,-0.1812330881754557,
1235,1235,4940,2021-10-05 15:31:09.786,-0.308380126953125,
1236,1236,4944,2021-10-05 15:31:09.790,-0.1498572031656901,
1237,1237,4948,2021-10-05 15:31:09.794,-0.2995649973551432,
1238,1238,4952,2021-10-05 15:31:09.798,-0.2021503448486328,
1239,1239,4956,2021-10-05 15:31:09.802,-0.193932851155599,
1240,1240,4960,2021-10-05 15:31:09.806,-0.3237692515055339,
1241,1241,4964,2021-10-05 15:31:09.810,-0.1670392354329427,
1242,1242,4968,2021-10-05 15:31:09.814,-0.3260103861490885,
1243,1243,4972,2021-10-05 15:31:09.818,-0.2265040079752604,
1244,1244,4976,2021-10-05 15:31:09.822,-0.2094713846842448,
1245,1245,4980,2021-10-05 15:31:09.826,-0.3328831990559896,
1246,1246,4984,2021-10-05 15:31:09.830,-0.1746590932210286,
1247,1247,4988,2021-10-05 15:31:09.834,-0.3358713785807292,
1248,1248,4992,2021-10-05 15:31:09.838,-0.2403990427652995,
1249,1249,4996,2021-10-05 15:31:09.842,-0.2166430155436198,
1250,1250,5000,2021-10-05 15:31:09.846,-0.3204822540283203,
1251,1251,5004,2021-10-05 15:31:09.850,-0.1268482208251953,
1252,1252,5008,2021-10-05 15:31:09.854,-0.2711772918701172,
1253,1253,5012,2021-10-05 15:31:09.858,-0.1788425445556641,
1254,1254,5016,2021-10-05 15:31:09.862,-0.1633040110270182,
1255,1255,5020,2021-10-05 15:31:09.866,-0.2843252817789714,
1256,1256,5024,2021-10-05 15:31:09.870,-0.1086203257242838,
1257,1257,5028,2021-10-05 15:31:09.874,-0.2598222096761068,
1258,1258,5032,2021-10-05 15:31:09.878,-0.1659933725992838,
1259,1259,5036,2021-10-05 15:31:09.882,-0.1556841532389323,
1260,1260,5040,2021-10-05 15:31:09.886,-0.2717749277750651,
1261,1261,5044,2021-10-05 15:31:09.890,-0.100104014078776,
1262,1262,5048,2021-10-05 15:31:09.894,-0.2595233917236328,
1263,1263,5052,2021-10-05 15:31:09.898,-0.1622581481933594,
1264,1264,5056,2021-10-05 15:31:09.902,-0.1467196146647135,
1265,1265,5060,2021-10-05 15:31:09.906,-0.2755101521809896,
1266,1266,5064,2021-10-05 15:31:09.910,-0.1131025950113932,
1267,1267,5068,2021-10-05 15:31:09.914,-0.2737172444661458,
1268,1268,5072,2021-10-05 15:31:09.918,-0.1839224497477213,
1269,1269,5076,2021-10-05 15:31:09.922,-0.1701768239339192,
1270,1270,5080,2021-10-05 15:31:09.926,-0.3006108601888021,
1271,1271,5084,2021-10-05 15:31:09.930,-0.1417891184488932,
1272,1272,5088,2021-10-05 15:31:09.934,-0.2989673614501953,
1273,1273,5092,2021-10-05 15:31:09.938,-0.1966222127278646,
1274,1274,5096,2021-10-05 15:31:09.942,-0.1875082651774088,
1275,1275,5100,2021-10-05 15:31:09.946,-0.323171615600586,
1276,1276,5104,2021-10-05 15:31:09.950,-0.1473172505696614,
1277,1277,5108,2021-10-05 15:31:09.954,-0.2952321370442708,
1278,1278,5112,2021-10-05 15:31:09.958,-0.1901976267496745,
1279,1279,5116,2021-10-05 15:31:09.962,-0.1731650034586588,
1280,1280,5120,2021-10-05 15:31:09.966,-0.308380126953125,
1281,1281,5124,2021-10-05 15:31:09.970,-0.1480642954508463,
1282,1282,5128,2021-10-05 15:31:09.974,-0.3018061319986979,
1283,1283,5132,2021-10-05 15:31:09.978,-0.2133560180664062,
1284,1284,5136,2021-10-05 15:31:09.982,-0.1991621653238932,
1285,1285,5140,2021-10-05 15:31:09.986,-0.315701166788737,
1286,1286,5144,2021-10-05 15:31:09.990,-0.1396973927815755,
1287,1287,5148,2021-10-05 15:31:09.994,-0.2935886383056641,
1288,1288,5152,2021-10-05 15:31:09.998,-0.1966222127278646,
1289,1289,5156,2021-10-05 15:31:10.002,-0.1782449086507161,
1290,1290,5160,2021-10-05 15:31:10.006,-0.3003120422363282,
1291,1291,5164,2021-10-05 15:31:10.010,-0.1308822631835937,
1292,1292,5168,2021-10-05 15:31:10.014,-0.2831300099690755,
1293,1293,5172,2021-10-05 15:31:10.018,-0.193932851155599,
1294,1294,5176,2021-10-05 15:31:10.022,-0.1855659484863281,
1295,1295,5180,2021-10-05 15:31:10.026,-0.3053919474283854,
1296,1296,5184,2021-10-05 15:31:10.030,-0.1186307271321614,
1297,1297,5188,2021-10-05 15:31:10.034,-0.2699820200602214,
1298,1298,5192,2021-10-05 15:31:10.038,-0.1749579111735026,
1299,1299,5196,2021-10-05 15:31:10.042,-0.1697285970052083,
1300,1300,5200,2021-10-05 15:31:10.046,-0.2995649973551432,
1301,1301,5204,2021-10-05 15:31:10.050,-0.128939946492513,
1302,1302,5208,2021-10-05 15:31:10.054,-0.2904510498046875,
1303,1303,5212,2021-10-05 15:31:10.058,-0.2002080281575521,
1304,1304,5216,2021-10-05 15:31:10.062,-0.1855659484863281,
1305,1305,5220,2021-10-05 15:31:10.066,-0.3067366282145182,
1306,1306,5224,2021-10-05 15:31:10.070,-0.1293881734212239,
1307,1307,5228,2021-10-05 15:31:10.074,-0.2846240997314453,
1308,1308,5232,2021-10-05 15:31:10.078,-0.1996103922526041,
1309,1309,5236,2021-10-05 15:31:10.082,-0.1804860432942708,
1310,1310,5240,2021-10-05 15:31:10.086,-0.3056907653808594,
1311,1311,5244,2021-10-05 15:31:10.090,-0.1325257619222005,
1312,1312,5248,2021-10-05 15:31:10.094,-0.2911980946858724,
1313,1313,5252,2021-10-05 15:31:10.098,-0.2033456166585286,
1314,1314,5256,2021-10-05 15:31:10.102,-0.1851177215576172,
1315,1315,5260,2021-10-05 15:31:10.106,-0.2998638153076172,
1316,1316,5264,2021-10-05 15:31:10.110,-0.1132520039876302,
1317,1317,5268,2021-10-05 15:31:10.114,-0.2686373392740885,
1318,1318,5272,2021-10-05 15:31:10.118,-0.1797389984130859,
1319,1319,5276,2021-10-05 15:31:10.122,-0.1679356892903646,
1320,1320,5280,2021-10-05 15:31:10.126,-0.2922439575195313,
1321,1321,5284,2021-10-05 15:31:10.130,-0.1086203257242838,
1322,1322,5288,2021-10-05 15:31:10.134,-0.2638562520345052,
1323,1323,5292,2021-10-05 15:31:10.138,-0.186611811319987,
1324,1324,5296,2021-10-05 15:31:10.142,-0.2105172475179036,
1325,1325,5300,2021-10-05 15:31:10.146,-0.3623167673746745,
1326,1326,5304,2021-10-05 15:31:10.150,-0.1869106292724609,
1327,1327,5308,2021-10-05 15:31:10.154,-0.32989501953125,
1328,1328,5312,2021-10-05 15:31:10.158,-0.2147006988525391,
1329,1329,5316,2021-10-05 15:31:10.162,-0.193634033203125,
1330,1330,5320,2021-10-05 15:31:10.166,-0.3829352060953777,
1331,1331,5324,2021-10-05 15:31:10.170,-0.1630051930745442,
1332,1332,5328,2021-10-05 15:31:10.174,-0.2132066090901693,
1333,1333,5332,2021-10-05 15:31:10.178,-0.2164936065673828,
1334,1334,5336,2021-10-05 15:31:10.182,-0.1015981038411458,
1335,1335,5340,2021-10-05 15:31:10.186,-0.2886581420898438,
1336,1336,5344,2021-10-05 15:31:10.190,-0.1183319091796875,
1337,1337,5348,2021-10-05 15:31:10.194,-0.2308368682861328,
1338,1338,5352,2021-10-05 15:31:10.198,-0.2997144063313802,
1339,1339,5356,2021-10-05 15:31:10.202,-0.2335262298583984,
1340,1340,5360,2021-10-05 15:31:10.206,-0.3902562459309896,
1341,1341,5364,2021-10-05 15:31:10.210,-0.0646940867106119,
1342,1342,5368,2021-10-05 15:31:10.214,0.1139990488688151,
1343,1343,5372,2021-10-05 15:31:10.218,0.3237692515055339,
1344,1344,5376,2021-10-05 15:31:10.222,0.5659612019856771,
1345,1345,5380,2021-10-05 15:31:10.226,0.3665002187093099,
1346,1346,5384,2021-10-05 15:31:10.230,0.1879564921061198,
1347,1347,5388,2021-10-05 15:31:10.234,-0.5009682973225912,
1348,1348,5392,2021-10-05 15:31:10.238,-1.1866060892740886,
1349,1349,5396,2021-10-05 15:31:10.242,-1.434475580851237,
1350,1350,5400,2021-10-05 15:31:10.246,-1.3911469777425132,
1351,1351,5404,2021-10-05 15:31:10.250,-0.7304604848225912,
1352,1352,5408,2021-10-05 15:31:10.254,-0.3548463185628255,
1353,1353,5412,2021-10-05 15:31:10.258,-0.1186307271321614,
1354,1354,5416,2021-10-05 15:31:10.262,0.0751527150472005,
1355,1355,5420,2021-10-05 15:31:10.266,-0.1159413655598958,
1356,1356,5424,2021-10-05 15:31:10.270,0.0316747029622395,
1357,1357,5428,2021-10-05 15:31:10.274,-0.0721645355224609,
1358,1358,5432,2021-10-05 15:31:10.278,-0.0983111063639323,
1359,1359,5436,2021-10-05 15:31:10.282,0.0132973988850911,
1360,1360,5440,2021-10-05 15:31:10.286,-0.1782449086507161,
1361,1361,5444,2021-10-05 15:31:10.290,-0.0167338053385416,
1362,1362,5448,2021-10-05 15:31:10.294,-0.1138496398925781,
1363,1363,5452,2021-10-05 15:31:10.298,-0.1516501108805338,
1364,1364,5456,2021-10-05 15:31:10.302,-0.0672340393066406,
1365,1365,5460,2021-10-05 15:31:10.306,-0.2741654713948568,
1366,1366,5464,2021-10-05 15:31:10.310,-0.1150449117024739,
1367,1367,5468,2021-10-05 15:31:10.314,-0.2057361602783203,
1368,1368,5472,2021-10-05 15:31:10.318,-0.222619374593099,
1369,1369,5476,2021-10-05 15:31:10.322,-0.1119073232014974,
1370,1370,5480,2021-10-05 15:31:10.326,-0.2995649973551432,
1371,1371,5484,2021-10-05 15:31:10.330,-0.1329739888509114,
1372,1372,5488,2021-10-05 15:31:10.334,-0.2306874593098958,
1373,1373,5492,2021-10-05 15:31:10.338,-0.2581787109375,
1374,1374,5496,2021-10-05 15:31:10.342,-0.1498572031656901,
1375,1375,5500,2021-10-05 15:31:10.346,-0.3357219696044922,
1376,1376,5504,2021-10-05 15:31:10.350,-0.1573276519775391,
1377,1377,5508,2021-10-05 15:31:10.354,-0.2387555440266927,
1378,1378,5512,2021-10-05 15:31:10.358,-0.2595233917236328,
1379,1379,5516,2021-10-05 15:31:10.362,-0.1603158315022786,
1380,1380,5520,2021-10-05 15:31:10.366,-0.3479735056559245,
1381,1381,5524,2021-10-05 15:31:10.370,-0.1603158315022786,
1382,1382,5528,2021-10-05 15:31:10.374,-0.2493635813395182,
1383,1383,5532,2021-10-05 15:31:10.378,-0.2741654713948568,
1384,1384,5536,2021-10-05 15:31:10.382,-0.1562817891438802,
1385,1385,5540,2021-10-05 15:31:10.386,-0.3315385182698568,
1386,1386,5544,2021-10-05 15:31:10.390,-0.1462713877360026,
1387,1387,5548,2021-10-05 15:31:10.394,-0.2323309580485026,
1388,1388,5552,2021-10-05 15:31:10.398,-0.2522023518880208,
1389,1389,5556,2021-10-05 15:31:10.402,-0.1447772979736328,
1390,1390,5560,2021-10-05 15:31:10.406,-0.3352737426757813,
1391,1391,5564,2021-10-05 15:31:10.410,-0.1468690236409505,
1392,1392,5568,2021-10-05 15:31:10.414,-0.2217229207356771,
1393,1393,5572,2021-10-05 15:31:10.418,-0.2393531799316406,
1394,1394,5576,2021-10-05 15:31:10.422,-0.1395479838053385,
1395,1395,5580,2021-10-05 15:31:10.426,-0.337365468343099,
1396,1396,5584,2021-10-05 15:31:10.430,-0.1568794250488281,
1397,1397,5588,2021-10-05 15:31:10.434,-0.2326297760009766,
1398,1398,5592,2021-10-05 15:31:10.438,-0.2457777659098307,
1399,1399,5596,2021-10-05 15:31:10.442,-0.1385021209716797,
1400,1400,5600,2021-10-05 15:31:10.446,-0.3281021118164063,
1401,1401,5604,2021-10-05 15:31:10.450,-0.150753657023112,
1402,1402,5608,2021-10-05 15:31:10.454,-0.2393531799316406,
1403,1403,5612,2021-10-05 15:31:10.458,-0.2616151173909505,
1404,1404,5616,2021-10-05 15:31:10.462,-0.1568794250488281,
1405,1405,5620,2021-10-05 15:31:10.466,-0.3361701965332032,
1406,1406,5624,2021-10-05 15:31:10.470,-0.1591205596923828,
1407,1407,5628,2021-10-05 15:31:10.474,-0.2442836761474609,
1408,1408,5632,2021-10-05 15:31:10.478,-0.2625115712483724,
1409,1409,5636,2021-10-05 15:31:10.482,-0.164648691813151,
1410,1410,5640,2021-10-05 15:31:10.486,-0.3744188944498698,
1411,1411,5644,2021-10-05 15:31:10.490,-0.2017021179199219,
1412,1412,5648,2021-10-05 15:31:10.494,-0.2906004587809245,
1413,1413,5652,2021-10-05 15:31:10.498,-0.2980709075927735,
1414,1414,5656,2021-10-05 15:31:10.502,-0.1830259958902995,
1415,1415,5660,2021-10-05 15:31:10.506,-0.3650061289469401,
1416,1416,5664,2021-10-05 15:31:10.510,-0.1710732777913411,
1417,1417,5668,2021-10-05 15:31:10.514,-0.2572822570800782,
1418,1418,5672,2021-10-05 15:31:10.518,-0.2598222096761068,
1419,1419,5676,2021-10-05 15:31:10.522,-0.1237106323242187,
1420,1420,5680,2021-10-05 15:31:10.526,-0.2917957305908203,
1421,1421,5684,2021-10-05 15:31:10.530,-0.0941276550292968,
1422,1422,5688,2021-10-05 15:31:10.534,-0.1686827341715495,
1423,1423,5692,2021-10-05 15:31:10.538,-0.1901976267496745,
1424,1424,5696,2021-10-05 15:31:10.542,-0.0905418395996093,
1425,1425,5700,2021-10-05 15:31:10.546,-0.300909678141276,
1426,1426,5704,2021-10-05 15:31:10.550,-0.1156425476074218,
1427,1427,5708,2021-10-05 15:31:10.554,-0.2057361602783203,
1428,1428,5712,2021-10-05 15:31:10.558,-0.2257569630940755,
1429,1429,5716,2021-10-05 15:31:10.562,-0.1048851013183593,
1430,1430,5720,2021-10-05 15:31:10.566,-0.3034496307373047,
1431,1431,5724,2021-10-05 15:31:10.570,-0.1281929016113281,
1432,1432,5728,2021-10-05 15:31:10.574,-0.2235158284505208,
1433,1433,5732,2021-10-05 15:31:10.578,-0.2401002248128255,
1434,1434,5736,2021-10-05 15:31:10.582,-0.1223659515380859,
1435,1435,5740,2021-10-05 15:31:10.586,-0.3284009297688802,
1436,1436,5744,2021-10-05 15:31:10.590,-0.1520983378092448,
1437,1437,5748,2021-10-05 15:31:10.594,-0.2478694915771484,
1438,1438,5752,2021-10-05 15:31:10.598,-0.2695337931315104,
1439,1439,5756,2021-10-05 15:31:10.602,-0.1552359263102213,
1440,1440,5760,2021-10-05 15:31:10.606,-0.3413995107014974,
1441,1441,5764,2021-10-05 15:31:10.610,-0.1520983378092448,
1442,1442,5768,2021-10-05 15:31:10.614,-0.2338250478108724,
1443,1443,5772,2021-10-05 15:31:10.618,-0.2501106262207032,
1444,1444,5776,2021-10-05 15:31:10.622,-0.1385021209716797,
1445,1445,5780,2021-10-05 15:31:10.626,-0.3415489196777344,
1446,1446,5784,2021-10-05 15:31:10.630,-0.1622581481933594,
1447,1447,5788,2021-10-05 15:31:10.634,-0.2581787109375,
1448,1448,5792,2021-10-05 15:31:10.638,-0.2804406483968099,
1449,1449,5796,2021-10-05 15:31:10.642,-0.1464207967122396,
1450,1450,5800,2021-10-05 15:31:10.646,-0.337514877319336,
1451,1451,5804,2021-10-05 15:31:10.650,-0.1595687866210937,
1452,1452,5808,2021-10-05 15:31:10.654,-0.2383073170979818,
1453,1453,5812,2021-10-05 15:31:10.658,-0.2608680725097657,
1454,1454,5816,2021-10-05 15:31:10.662,-0.1411914825439453,
1455,1455,5820,2021-10-05 15:31:10.666,-0.3204822540283203,
1456,1456,5824,2021-10-05 15:31:10.670,-0.1304340362548828,
1457,1457,5828,2021-10-05 15:31:10.674,-0.2188841501871745,
1458,1458,5832,2021-10-05 15:31:10.678,-0.2477200826009115,
1459,1459,5836,2021-10-05 15:31:10.682,-0.1305834452311198,
1460,1460,5840,2021-10-05 15:31:10.686,-0.3279527028401693,
1461,1461,5844,2021-10-05 15:31:10.690,-0.1525465647379557,
1462,1462,5848,2021-10-05 15:31:10.694,-0.2533976236979167,
1463,1463,5852,2021-10-05 15:31:10.698,-0.265798568725586,
1464,1464,5856,2021-10-05 15:31:10.702,-0.1395479838053385,
1465,1465,5860,2021-10-05 15:31:10.706,-0.3285503387451172,
1466,1466,5864,2021-10-05 15:31:10.710,-0.1334222157796224,
1467,1467,5868,2021-10-05 15:31:10.714,-0.2121607462565104,
1468,1468,5872,2021-10-05 15:31:10.718,-0.2398014068603516,
1469,1469,5876,2021-10-05 15:31:10.722,-0.135962168375651,
1470,1470,5880,2021-10-05 15:31:10.726,-0.3327337900797526,
1471,1471,5884,2021-10-05 15:31:10.730,-0.1395479838053385,
1472,1472,5888,2021-10-05 15:31:10.734,-0.2245616912841797,
1473,1473,5892,2021-10-05 15:31:10.738,-0.2495129903157552,
1474,1474,5896,2021-10-05 15:31:10.742,-0.1343186696370442,
1475,1475,5900,2021-10-05 15:31:10.746,-0.3273550669352214,
1476,1476,5904,2021-10-05 15:31:10.750,-0.1467196146647135,
1477,1477,5908,2021-10-05 15:31:10.754,-0.2341238657633463,
1478,1478,5912,2021-10-05 15:31:10.758,-0.2474212646484375,
1479,1479,5916,2021-10-05 15:31:10.762,-0.1271470387776692,
1480,1480,5920,2021-10-05 15:31:10.766,-0.3118165334065755,
1481,1481,5924,2021-10-05 15:31:10.770,-0.1263999938964844,
1482,1482,5928,2021-10-05 15:31:10.774,-0.2109654744466146,
1483,1483,5932,2021-10-05 15:31:10.778,-0.2342732747395833,
1484,1484,5936,2021-10-05 15:31:10.782,-0.1395479838053385,
1485,1485,5940,2021-10-05 15:31:10.786,-0.351858139038086,
1486,1486,5944,2021-10-05 15:31:10.790,-0.1751073201497396,
1487,1487,5948,2021-10-05 15:31:10.794,-0.2631092071533203,
1488,1488,5952,2021-10-05 15:31:10.798,-0.286865234375,
1489,1489,5956,2021-10-05 15:31:10.802,-0.1761531829833984,
1490,1490,5960,2021-10-05 15:31:10.806,-0.3684425354003907,
1491,1491,5964,2021-10-05 15:31:10.810,-0.1739120483398437,
1492,1492,5968,2021-10-05 15:31:10.814,-0.2424907684326172,
1493,1493,5972,2021-10-05 15:31:10.818,-0.2445824940999349,
1494,1494,5976,2021-10-05 15:31:10.822,-0.1104132334391276,
1495,1495,5980,2021-10-05 15:31:10.826,-0.3000132242838542,
1496,1496,5984,2021-10-05 15:31:10.830,-0.1307328542073567,
1497,1497,5988,2021-10-05 15:31:10.834,-0.2329285939534505,
1498,1498,5992,2021-10-05 15:31:10.838,-0.2541446685791016,
1499,1499,5996,2021-10-05 15:31:10.842,-0.1483631134033203,
1500,1500,6000,2021-10-05 15:31:10.846,-0.3853257497151693,
1501,1501,6004,2021-10-05 15:31:10.850,-0.214850107828776,
1502,1502,6008,2021-10-05 15:31:10.854,-0.215447743733724,
1503,1503,6012,2021-10-05 15:31:10.858,-0.0378004709879557,
1504,1504,6016,2021-10-05 15:31:10.862,0.3264586130777995,
1505,1505,6020,2021-10-05 15:31:10.866,0.34423828125,
1506,1506,6024,2021-10-05 15:31:10.870,0.5924065907796224,
1507,1507,6028,2021-10-05 15:31:10.874,0.3545475006103516,
1508,1508,6032,2021-10-05 15:31:10.878,-0.1884047190348307,
1509,1509,6036,2021-10-05 15:31:10.882,-0.7997862497965496,
1510,1510,6040,2021-10-05 15:31:10.886,-1.5670013427734375,
1511,1511,6044,2021-10-05 15:31:10.890,-1.4468765258789065,
1512,1512,6048,2021-10-05 15:31:10.894,-1.0681247711181645,
1513,1513,6052,2021-10-05 15:31:10.898,-0.5788103739420574,
1514,1514,6056,2021-10-05 15:31:10.902,-0.1032416025797526,
1515,1515,6060,2021-10-05 15:31:10.906,-0.1337210337320963,
1516,1516,6064,2021-10-05 15:31:10.910,0.0575224558512369,
1517,1517,6068,2021-10-05 15:31:10.914,-0.0488567352294921,
1518,1518,6072,2021-10-05 15:31:10.918,-0.0959205627441406,
1519,1519,6076,2021-10-05 15:31:10.922,0.0252501169840494,
1520,1520,6080,2021-10-05 15:31:10.926,-0.1558335622151692,
1521,1521,6084,2021-10-05 15:31:10.930,0.0206184387207031,
1522,1522,6088,2021-10-05 15:31:10.934,-0.0764973958333333,
1523,1523,6092,2021-10-05 15:31:10.938,-0.1126543680826823,
1524,1524,6096,2021-10-05 15:31:10.942,-0.0129985809326171,
1525,1525,6100,2021-10-05 15:31:10.946,-0.2205276489257812,
1526,1526,6104,2021-10-05 15:31:10.950,-0.0797843933105468,
1527,1527,6108,2021-10-05 15:31:10.954,-0.1982657114664713,
1528,1528,6112,2021-10-05 15:31:10.958,-0.2318827311197916,
1529,1529,6116,2021-10-05 15:31:10.962,-0.1199754079182942,
1530,1530,6120,2021-10-05 15:31:10.966,-0.2985191345214844,
1531,1531,6124,2021-10-05 15:31:10.970,-0.1087697347005208,
1532,1532,6128,2021-10-05 15:31:10.974,-0.2069314320882161,
1533,1533,6132,2021-10-05 15:31:10.978,-0.2420425415039062,
1534,1534,6136,2021-10-05 15:31:10.982,-0.1335716247558594,
1535,1535,6140,2021-10-05 15:31:10.986,-0.3403536478678385,
1536,1536,6144,2021-10-05 15:31:10.990,-0.179440180460612,
1537,1537,6148,2021-10-05 15:31:10.994,-0.2744642893473307,
1538,1538,6152,2021-10-05 15:31:10.998,-0.2837276458740235,
1539,1539,6156,2021-10-05 15:31:11.002,-0.1453749338785807,
1540,1540,6160,2021-10-05 15:31:11.006,-0.330044428507487,
1541,1541,6164,2021-10-05 15:31:11.010,-0.1543394724527995,
1542,1542,6168,2021-10-05 15:31:11.014,-0.2423413594563802,
1543,1543,6172,2021-10-05 15:31:11.018,-0.2626609802246094,
1544,1544,6176,2021-10-05 15:31:11.022,-0.1495583852132161,
1545,1545,6180,2021-10-05 15:31:11.026,-0.3399054209391276,
1546,1546,6184,2021-10-05 15:31:11.030,-0.1510524749755859,
1547,1547,6188,2021-10-05 15:31:11.034,-0.2424907684326172,
1548,1548,6192,2021-10-05 15:31:11.038,-0.258328119913737,
1549,1549,6196,2021-10-05 15:31:11.042,-0.121618906656901,
1550,1550,6200,2021-10-05 15:31:11.046,-0.3035990397135417,
1551,1551,6204,2021-10-05 15:31:11.050,-0.12908935546875,
1552,1552,6208,2021-10-05 15:31:11.054,-0.2372614542643229,
1553,1553,6212,2021-10-05 15:31:11.058,-0.2637068430582682,
1554,1554,6216,2021-10-05 15:31:11.062,-0.1373068491617838,
1555,1555,6220,2021-10-05 15:31:11.066,-0.3185399373372396,
1556,1556,6224,2021-10-05 15:31:11.070,-0.1350657145182291,
1557,1557,6228,2021-10-05 15:31:11.074,-0.2191829681396484,
1558,1558,6232,2021-10-05 15:31:11.078,-0.2498118082682291,
1559,1559,6236,2021-10-05 15:31:11.082,-0.1486619313557942,
1560,1560,6240,2021-10-05 15:31:11.086,-0.3499158223470052,
1561,1561,6244,2021-10-05 15:31:11.090,-0.1667404174804687,
1562,1562,6248,2021-10-05 15:31:11.094,-0.2380084991455078,
1563,1563,6252,2021-10-05 15:31:11.098,-0.250857671101888,
1564,1564,6256,2021-10-05 15:31:11.102,-0.1347668965657552,
1565,1565,6260,2021-10-05 15:31:11.106,-0.336917241414388,
1566,1566,6264,2021-10-05 15:31:11.110,-0.1760037740071614,
1567,1567,6268,2021-10-05 15:31:11.114,-0.2783489227294922,
1568,1568,6272,2021-10-05 15:31:11.118,-0.3003120422363282,
1569,1569,6276,2021-10-05 15:31:11.122,-0.179141362508138,
1570,1570,6280,2021-10-05 15:31:11.126,-0.3720283508300782,
1571,1571,6284,2021-10-05 15:31:11.130,-0.193335215250651,
1572,1572,6288,2021-10-05 15:31:11.134,-0.2877616882324219,
1573,1573,6292,2021-10-05 15:31:11.138,-0.3124141693115235,
1574,1574,6296,2021-10-05 15:31:11.142,-0.1940822601318359,
1575,1575,6300,2021-10-05 15:31:11.146,-0.3775564829508464,
1576,1576,6304,2021-10-05 15:31:11.150,-0.1707744598388672,
1577,1577,6308,2021-10-05 15:31:11.154,-0.2398014068603516,
1578,1578,6312,2021-10-05 15:31:11.158,-0.2483177185058594,
1579,1579,6316,2021-10-05 15:31:11.162,-0.1134014129638672,
1580,1580,6320,2021-10-05 15:31:11.166,-0.3203328450520833,
1581,1581,6324,2021-10-05 15:31:11.170,-0.1837730407714844,
1582,1582,6328,2021-10-05 15:31:11.174,-0.1189295450846354,
1583,1583,6332,2021-10-05 15:31:11.178,-0.2178382873535156,
1584,1584,6336,2021-10-05 15:31:11.182,-0.0327205657958984,
1585,1585,6340,2021-10-05 15:31:11.186,-0.229641596476237,
1586,1586,6344,2021-10-05 15:31:11.190,-0.1534430185953776,
1587,1587,6348,2021-10-05 15:31:11.194,-0.1489607493082682,
1588,1588,6352,2021-10-05 15:31:11.198,-0.2876122792561849,
1589,1589,6356,2021-10-05 15:31:11.202,-0.0978628794352213,
1590,1590,6360,2021-10-05 15:31:11.206,-0.2592245737711589,
1591,1591,6364,2021-10-05 15:31:11.210,-0.1633040110270182,
1592,1592,6368,2021-10-05 15:31:11.214,-0.1571782430013021,
1593,1593,6372,2021-10-05 15:31:11.218,-0.2968756357828776,
1594,1594,6376,2021-10-05 15:31:11.222,-0.1192283630371093,
1595,1595,6380,2021-10-05 15:31:11.226,-0.2859687805175782,
1596,1596,6384,2021-10-05 15:31:11.230,-0.1825777689615885,
1597,1597,6388,2021-10-05 15:31:11.234,-0.1713720957438151,
1598,1598,6392,2021-10-05 15:31:11.238,-0.3121153513590495,
1599,1599,6396,2021-10-05 15:31:11.242,-0.1314798990885416,
1600,1600,6400,2021-10-05 15:31:11.246,-0.2967262268066407,
1601,1601,6404,2021-10-05 15:31:11.250,-0.1996103922526041,
1602,1602,6408,2021-10-05 15:31:11.254,-0.1927375793457031,
1603,1603,6412,2021-10-05 15:31:11.258,-0.3239186604817708,
1604,1604,6416,2021-10-05 15:31:11.262,-0.129238764444987,
1605,1605,6420,2021-10-05 15:31:11.266,-0.2949333190917969,
1606,1606,6424,2021-10-05 15:31:11.270,-0.2014032999674479,
1607,1607,6428,2021-10-05 15:31:11.274,-0.1948293050130208,
1608,1608,6432,2021-10-05 15:31:11.278,-0.3315385182698568,
1609,1609,6436,2021-10-05 15:31:11.282,-0.1373068491617838,
1610,1610,6440,2021-10-05 15:31:11.286,-0.2977720896402995,
1611,1611,6444,2021-10-05 15:31:11.290,-0.1976680755615234,
1612,1612,6448,2021-10-05 15:31:11.294,-0.1922893524169922,
1613,1613,6452,2021-10-05 15:31:11.298,-0.3263092041015625,
1614,1614,6456,2021-10-05 15:31:11.302,-0.1401456197102864,
1615,1615,6460,2021-10-05 15:31:11.306,-0.2998638153076172,
1616,1616,6464,2021-10-05 15:31:11.310,-0.2002080281575521,
1617,1617,6468,2021-10-05 15:31:11.314,-0.1893011728922526,
1618,1618,6472,2021-10-05 15:31:11.318,-0.3183905283610026,
1619,1619,6476,2021-10-05 15:31:11.322,-0.1272964477539062,
1620,1620,6480,2021-10-05 15:31:11.326,-0.2844746907552083,
1621,1621,6484,2021-10-05 15:31:11.330,-0.1946798960367838,
1622,1622,6488,2021-10-05 15:31:11.334,-0.1827271779378255,
1623,1623,6492,2021-10-05 15:31:11.338,-0.3170458475748698,
1624,1624,6496,2021-10-05 15:31:11.342,-0.1349163055419922,
1625,1625,6500,2021-10-05 15:31:11.346,-0.2828311920166016,
1626,1626,6504,2021-10-05 15:31:11.350,-0.186611811319987,
1627,1627,6508,2021-10-05 15:31:11.354,-0.172268549601237,
1628,1628,6512,2021-10-05 15:31:11.358,-0.3021049499511719,
1629,1629,6516,2021-10-05 15:31:11.362,-0.1201248168945312,
1630,1630,6520,2021-10-05 15:31:11.366,-0.2713267008463542,
1631,1631,6524,2021-10-05 15:31:11.370,-0.1737626393636067,
1632,1632,6528,2021-10-05 15:31:11.374,-0.1677862803141276,
1633,1633,6532,2021-10-05 15:31:11.378,-0.3128623962402344,
1634,1634,6536,2021-10-05 15:31:11.382,-0.1269976298014323,
1635,1635,6540,2021-10-05 15:31:11.386,-0.2814865112304688,
1636,1636,6544,2021-10-05 15:31:11.390,-0.1830259958902995,
1637,1637,6548,2021-10-05 15:31:11.394,-0.1677862803141276,
1638,1638,6552,2021-10-05 15:31:11.398,-0.2956803639729818,
1639,1639,6556,2021-10-05 15:31:11.402,-0.1093673706054687,
1640,1640,6560,2021-10-05 15:31:11.406,-0.2680397033691407,
1641,1641,6564,2021-10-05 15:31:11.410,-0.1774978637695312,
1642,1642,6568,2021-10-05 15:31:11.414,-0.1907952626546224,
1643,1643,6572,2021-10-05 15:31:11.418,-0.3454335530598958,
1644,1644,6576,2021-10-05 15:31:11.422,-0.1766014099121094,
1645,1645,6580,2021-10-05 15:31:11.426,-0.3342278798421224,
1646,1646,6584,2021-10-05 15:31:11.430,-0.2214241027832031,
1647,1647,6588,2021-10-05 15:31:11.434,-0.1940822601318359,
1648,1648,6592,2021-10-05 15:31:11.438,-0.3161493937174479,
1649,1649,6596,2021-10-05 15:31:11.442,-0.1293881734212239,
1650,1650,6600,2021-10-05 15:31:11.446,-0.2923933664957682,
1651,1651,6604,2021-10-05 15:31:11.450,-0.1918411254882812,
1652,1652,6608,2021-10-05 15:31:11.454,-0.172268549601237,
1653,1653,6612,2021-10-05 15:31:11.458,-0.301656723022461,
1654,1654,6616,2021-10-05 15:31:11.462,-0.1175848642985026,
1655,1655,6620,2021-10-05 15:31:11.466,-0.2889569600423177,
1656,1656,6624,2021-10-05 15:31:11.470,-0.2099196116129557,
1657,1657,6628,2021-10-05 15:31:11.474,-0.2274004618326823,
1658,1658,6632,2021-10-05 15:31:11.478,-0.3817399342854818,
1659,1659,6636,2021-10-05 15:31:11.482,-0.1519489288330078,
1660,1660,6640,2021-10-05 15:31:11.486,-0.1555347442626953,
1661,1661,6644,2021-10-05 15:31:11.490,0.1858647664388021,
1662,1662,6648,2021-10-05 15:31:11.494,0.4282061258951823,
1663,1663,6652,2021-10-05 15:31:11.498,0.4497210184733073,
1664,1664,6656,2021-10-05 15:31:11.502,0.5779139200846355,
1665,1665,6660,2021-10-05 15:31:11.506,0.071417490641276,
1666,1666,6664,2021-10-05 15:31:11.510,-0.4846827189127605,
1667,1667,6668,2021-10-05 15:31:11.514,-1.198708216349284,
1668,1668,6672,2021-10-05 15:31:11.518,-1.6694959004720054,
1669,1669,6676,2021-10-05 15:31:11.522,-1.2529436747233074,
1670,1670,6680,2021-10-05 15:31:11.526,-0.8816623687744142,
1671,1671,6684,2021-10-05 15:31:11.530,-0.3493181864420573,
1672,1672,6688,2021-10-05 15:31:11.534,-0.0661881764729817,
1673,1673,6692,2021-10-05 15:31:11.538,-0.1084709167480468,
1674,1674,6696,2021-10-05 15:31:11.542,0.0723139444986979,
1675,1675,6700,2021-10-05 15:31:11.546,-0.1083215077718099,
1676,1676,6704,2021-10-05 15:31:11.550,-0.021365483601888,
1677,1677,6708,2021-10-05 15:31:11.554,-0.0113550821940104,
1678,1678,6712,2021-10-05 15:31:11.558,-0.1479148864746094,
1679,1679,6716,2021-10-05 15:31:11.562,0.0264453887939453,
1680,1680,6720,2021-10-05 15:31:11.566,-0.1462713877360026,
1681,1681,6724,2021-10-05 15:31:11.570,-0.0594647725423177,
1682,1682,6728,2021-10-05 15:31:11.574,-0.0617059071858724,
1683,1683,6732,2021-10-05 15:31:11.578,-0.207678476969401,
1684,1684,6736,2021-10-05 15:31:11.582,-0.042581558227539,
1685,1685,6740,2021-10-05 15:31:11.586,-0.229193369547526,
1686,1686,6744,2021-10-05 15:31:11.590,-0.157626469930013,
1687,1687,6748,2021-10-05 15:31:11.594,-0.1616605122884114,
1688,1688,6752,2021-10-05 15:31:11.598,-0.3024037679036458,
1689,1689,6756,2021-10-05 15:31:11.602,-0.1241588592529297,
1690,1690,6760,2021-10-05 15:31:11.606,-0.2916463216145833,
1691,1691,6764,2021-10-05 15:31:11.610,-0.2054373423258463,
1692,1692,6768,2021-10-05 15:31:11.614,-0.193484624226888,
1693,1693,6772,2021-10-05 15:31:11.618,-0.3173446655273438,
1694,1694,6776,2021-10-05 15:31:11.622,-0.1314798990885416,
1695,1695,6780,2021-10-05 15:31:11.626,-0.294335683186849,
1696,1696,6784,2021-10-05 15:31:11.630,-0.2057361602783203,
1697,1697,6788,2021-10-05 15:31:11.634,-0.1946798960367838,
1698,1698,6792,2021-10-05 15:31:11.638,-0.3185399373372396,
1699,1699,6796,2021-10-05 15:31:11.642,-0.1343186696370442,
1700,1700,6800,2021-10-05 15:31:11.646,-0.294036865234375,
1701,1701,6804,2021-10-05 15:31:11.650,-0.1973692576090495,
1702,1702,6808,2021-10-05 15:31:11.654,-0.1852671305338541,
1703,1703,6812,2021-10-05 15:31:11.658,-0.3191375732421875,
1704,1704,6816,2021-10-05 15:31:11.662,-0.1389503479003906,
1705,1705,6820,2021-10-05 15:31:11.666,-0.2947839101155599,
1706,1706,6824,2021-10-05 15:31:11.670,-0.1982657114664713,
1707,1707,6828,2021-10-05 15:31:11.674,-0.1815319061279297,
1708,1708,6832,2021-10-05 15:31:11.678,-0.3065872192382813,
1709,1709,6836,2021-10-05 15:31:11.682,-0.1247564951578776,
1710,1710,6840,2021-10-05 15:31:11.686,-0.2802912394205729,
1711,1711,6844,2021-10-05 15:31:11.690,-0.1878070831298828,
1712,1712,6848,2021-10-05 15:31:11.694,-0.1739120483398437,
1713,1713,6852,2021-10-05 15:31:11.698,-0.2974732716878255,
1714,1714,6856,2021-10-05 15:31:11.702,-0.1157919565836588,
1715,1715,6860,2021-10-05 15:31:11.706,-0.2762571970621745,
1716,1716,6864,2021-10-05 15:31:11.710,-0.1901976267496745,
1717,1717,6868,2021-10-05 15:31:11.714,-0.1809342702229817,
1718,1718,6872,2021-10-05 15:31:11.718,-0.315701166788737,
1719,1719,6876,2021-10-05 15:31:11.722,-0.1422373453776041,
1720,1720,6880,2021-10-05 15:31:11.726,-0.3070354461669922,
1721,1721,6884,2021-10-05 15:31:11.730,-0.2112642923990885,
1722,1722,6888,2021-10-05 15:31:11.734,-0.1927375793457031,
1723,1723,6892,2021-10-05 15:31:11.738,-0.3183905283610026,
1724,1724,6896,2021-10-05 15:31:11.742,-0.1517995198567708,
1725,1725,6900,2021-10-05 15:31:11.746,-0.322573979695638,
1726,1726,6904,2021-10-05 15:31:11.750,-0.2402496337890625,
1727,1727,6908,2021-10-05 15:31:11.754,-0.2312850952148437,
1728,1728,6912,2021-10-05 15:31:11.758,-0.3623167673746745,
1729,1729,6916,2021-10-05 15:31:11.762,-0.186611811319987,
1730,1730,6920,2021-10-05 15:31:11.766,-0.3366184234619141,
1731,1731,6924,2021-10-05 15:31:11.770,-0.2354685465494791,
1732,1732,6928,2021-10-05 15:31:11.774,-0.2167924245198568,
1733,1733,6932,2021-10-05 15:31:11.778,-0.3348255157470703,
1734,1734,6936,2021-10-05 15:31:11.782,-0.157925287882487,
1735,1735,6940,2021-10-05 15:31:11.786,-0.30120849609375,
1736,1736,6944,2021-10-05 15:31:11.790,-0.1949787139892578,
1737,1737,6948,2021-10-05 15:31:11.794,-0.1644992828369141,
1738,1738,6952,2021-10-05 15:31:11.798,-0.2808888753255208,
1739,1739,6956,2021-10-05 15:31:11.802,-0.1060803731282552,
1740,1740,6960,2021-10-05 15:31:11.806,-0.250708262125651,
1741,1741,6964,2021-10-05 15:31:11.810,-0.1558335622151692,
1742,1742,6968,2021-10-05 15:31:11.814,-0.1373068491617838,
1743,1743,6972,2021-10-05 15:31:11.818,-0.2550411224365235,
1744,1744,6976,2021-10-05 15:31:11.822,-0.0830713907877604,
1745,1745,6980,2021-10-05 15:31:11.826,-0.2415943145751953,
1746,1746,6984,2021-10-05 15:31:11.830,-0.1531442006429036,
1747,1747,6988,2021-10-05 15:31:11.834,-0.1476160685221354,
1748,1748,6992,2021-10-05 15:31:11.838,-0.27252197265625,
1749,1749,6996,2021-10-05 15:31:11.842,-0.0956217447916666,
1750,1750,7000,2021-10-05 15:31:11.846,-0.2478694915771484,
1751,1751,7004,2021-10-05 15:31:11.850,-0.1540406545003255,
1752,1752,7008,2021-10-05 15:31:11.854,-0.1492595672607422,
1753,1753,7012,2021-10-05 15:31:11.858,-0.2926921844482422,
1754,1754,7016,2021-10-05 15:31:11.862,-0.1426855723063151,
1755,1755,7020,2021-10-05 15:31:11.866,-0.3182411193847657,
1756,1756,7024,2021-10-05 15:31:11.870,-0.2406978607177734,
1757,1757,7028,2021-10-05 15:31:11.874,-0.2265040079752604,
1758,1758,7032,2021-10-05 15:31:11.878,-0.3433418273925782,
1759,1759,7036,2021-10-05 15:31:11.882,-0.1558335622151692,
1760,1760,7040,2021-10-05 15:31:11.886,-0.3018061319986979,
1761,1761,7044,2021-10-05 15:31:11.890,-0.2045408884684245,
1762,1762,7048,2021-10-05 15:31:11.894,-0.1897493998209635,
1763,1763,7052,2021-10-05 15:31:11.898,-0.315999984741211,
1764,1764,7056,2021-10-05 15:31:11.902,-0.150753657023112,
1765,1765,7060,2021-10-05 15:31:11.906,-0.3018061319986979,
1766,1766,7064,2021-10-05 15:31:11.910,-0.1975186665852865,
1767,1767,7068,2021-10-05 15:31:11.914,-0.1713720957438151,
1768,1768,7072,2021-10-05 15:31:11.918,-0.2879110972086589,
1769,1769,7076,2021-10-05 15:31:11.922,-0.1108614603678385,
1770,1770,7080,2021-10-05 15:31:11.926,-0.2671432495117188,
1771,1771,7084,2021-10-05 15:31:11.930,-0.1749579111735026,
1772,1772,7088,2021-10-05 15:31:11.934,-0.1652463277180989,
1773,1773,7092,2021-10-05 15:31:11.938,-0.2952321370442708,
1774,1774,7096,2021-10-05 15:31:11.942,-0.1328245798746745,
1775,1775,7100,2021-10-05 15:31:11.946,-0.2955309549967448,
1776,1776,7104,2021-10-05 15:31:11.950,-0.2060349782307943,
1777,1777,7108,2021-10-05 15:31:11.954,-0.1900482177734375,
1778,1778,7112,2021-10-05 15:31:11.958,-0.3007602691650391,
1779,1779,7116,2021-10-05 15:31:11.962,-0.1240094502766927,
1780,1780,7120,2021-10-05 15:31:11.966,-0.287014643351237,
1781,1781,7124,2021-10-05 15:31:11.970,-0.2075290679931641,
1782,1782,7128,2021-10-05 15:31:11.974,-0.2028973897298177,
1783,1783,7132,2021-10-05 15:31:11.978,-0.3234704335530599,
1784,1784,7136,2021-10-05 15:31:11.982,-0.1473172505696614,
1785,1785,7140,2021-10-05 15:31:11.986,-0.2917957305908203,
1786,1786,7144,2021-10-05 15:31:11.990,-0.1897493998209635,
1787,1787,7148,2021-10-05 15:31:11.994,-0.1697285970052083,
1788,1788,7152,2021-10-05 15:31:11.998,-0.2882099151611328,
1789,1789,7156,2021-10-05 15:31:12.002,-0.1208718617757161,
1790,1790,7160,2021-10-05 15:31:12.006,-0.2819347381591797,
1791,1791,7164,2021-10-05 15:31:12.010,-0.1987139383951823,
1792,1792,7168,2021-10-05 15:31:12.014,-0.1848189036051432,
1793,1793,7172,2021-10-05 15:31:12.018,-0.2932898203531901,
1794,1794,7176,2021-10-05 15:31:12.022,-0.1177342732747395,
1795,1795,7180,2021-10-05 15:31:12.026,-0.2735678354899089,
1796,1796,7184,2021-10-05 15:31:12.030,-0.1869106292724609,
1797,1797,7188,2021-10-05 15:31:12.034,-0.1780954996744791,
1798,1798,7192,2021-10-05 15:31:12.038,-0.3038978576660157,
1799,1799,7196,2021-10-05 15:31:12.042,-0.143582026163737,
1800,1800,7200,2021-10-05 15:31:12.046,-0.3049437204996745,
1801,1801,7204,2021-10-05 15:31:12.050,-0.2064832051595052,
1802,1802,7208,2021-10-05 15:31:12.054,-0.1779460906982422,
1803,1803,7212,2021-10-05 15:31:12.058,-0.2790959676106771,
1804,1804,7216,2021-10-05 15:31:12.062,-0.107723871866862,
1805,1805,7220,2021-10-05 15:31:12.066,-0.2779006958007813,
1806,1806,7224,2021-10-05 15:31:12.070,-0.2063337961832682,
1807,1807,7228,2021-10-05 15:31:12.074,-0.2112642923990885,
1808,1808,7232,2021-10-05 15:31:12.078,-0.3382619222005208,
1809,1809,7236,2021-10-05 15:31:12.082,-0.1600170135498047,
1810,1810,7240,2021-10-05 15:31:12.086,-0.3059895833333333,
1811,1811,7244,2021-10-05 15:31:12.090,-0.2064832051595052,
1812,1812,7248,2021-10-05 15:31:12.094,-0.1881059010823567,
1813,1813,7252,2021-10-05 15:31:12.098,-0.3024037679036458,
1814,1814,7256,2021-10-05 15:31:12.102,-0.1235612233479817,
1815,1815,7260,2021-10-05 15:31:12.106,-0.2740160624186198,
1816,1816,7264,2021-10-05 15:31:12.110,-0.1875082651774088,
1817,1817,7268,2021-10-05 15:31:12.114,-0.1777966817220052,
1818,1818,7272,2021-10-05 15:31:12.118,-0.2988179524739583,
1819,1819,7276,2021-10-05 15:31:12.122,-0.1449267069498698,
1820,1820,7280,2021-10-05 15:31:12.126,-0.3385607401529948,
1821,1821,7284,2021-10-05 15:31:12.130,-0.2967262268066407,
1822,1822,7288,2021-10-05 15:31:12.134,-0.2568340301513672,
1823,1823,7292,2021-10-05 15:31:12.138,-0.2112642923990885,
1824,1824,7296,2021-10-05 15:31:12.142,0.1987139383951823,
1825,1825,7300,2021-10-05 15:31:12.146,0.2738666534423828,
1826,1826,7304,2021-10-05 15:31:12.150,0.4982789357503255,
1827,1827,7308,2021-10-05 15:31:12.154,0.5321947733561199,
1828,1828,7312,2021-10-05 15:31:12.158,0.1558335622151692,
1829,1829,7316,2021-10-05 15:31:12.162,-0.2903016408284505,
1830,1830,7320,2021-10-05 15:31:12.166,-1.170021692911784,
1831,1831,7324,2021-10-05 15:31:12.170,-1.5540027618408203,
1832,1832,7328,2021-10-05 15:31:12.174,-1.2120056152343752,
1833,1833,7332,2021-10-05 15:31:12.178,-0.8729966481526694,
1834,1834,7336,2021-10-05 15:31:12.182,-0.3122647603352865,
1835,1835,7340,2021-10-05 15:31:12.186,-0.1668898264567057,
1836,1836,7344,2021-10-05 15:31:12.190,-0.1207224527994791,
1837,1837,7348,2021-10-05 15:31:12.194,-0.007171630859375,
1838,1838,7352,2021-10-05 15:31:12.198,-0.1713720957438151,
1839,1839,7356,2021-10-05 15:31:12.202,0.0041834513346354,
1840,1840,7360,2021-10-05 15:31:12.206,-0.0770950317382812,
1841,1841,7364,2021-10-05 15:31:12.210,-0.092932383219401,
1842,1842,7368,2021-10-05 15:31:12.214,0.0109068552652994,
1843,1843,7372,2021-10-05 15:31:12.218,-0.1709238688151041,
1844,1844,7376,2021-10-05 15:31:12.222,-0.0189749399820963,
1845,1845,7380,2021-10-05 15:31:12.226,-0.1231129964192708,
1846,1846,7384,2021-10-05 15:31:12.230,-0.1709238688151041,
1847,1847,7388,2021-10-05 15:31:12.234,-0.0835196177164713,
1848,1848,7392,2021-10-05 15:31:12.238,-0.2660973866780599,
1849,1849,7396,2021-10-05 15:31:12.242,-0.1132520039876302,
1850,1850,7400,2021-10-05 15:31:12.246,-0.2046902974446615,
1851,1851,7404,2021-10-05 15:31:12.250,-0.2324803670247396,
1852,1852,7408,2021-10-05 15:31:12.254,-0.1349163055419922,
1853,1853,7412,2021-10-05 15:31:12.258,-0.3104718526204427,
1854,1854,7416,2021-10-05 15:31:12.262,-0.1497077941894531,
1855,1855,7420,2021-10-05 15:31:12.266,-0.2350203196207682,
1856,1856,7424,2021-10-05 15:31:12.270,-0.2589257558186849,
1857,1857,7428,2021-10-05 15:31:12.274,-0.15777587890625,
1858,1858,7432,2021-10-05 15:31:12.278,-0.3264586130777995,
1859,1859,7436,2021-10-05 15:31:12.282,-0.1676368713378906,
1860,1860,7440,2021-10-05 15:31:12.286,-0.2408472696940104,
1861,1861,7444,2021-10-05 15:31:12.290,-0.2590751647949219,
1862,1862,7448,2021-10-05 15:31:12.294,-0.1556841532389323,
1863,1863,7452,2021-10-05 15:31:12.298,-0.3218269348144532,
1864,1864,7456,2021-10-05 15:31:12.302,-0.1698780059814453,
1865,1865,7460,2021-10-05 15:31:12.306,-0.250708262125651,
1866,1866,7464,2021-10-05 15:31:12.310,-0.2696832021077474,
1867,1867,7468,2021-10-05 15:31:12.314,-0.1610628763834635,
1868,1868,7472,2021-10-05 15:31:12.318,-0.3188387552897135,
1869,1869,7476,2021-10-05 15:31:12.322,-0.1552359263102213,
1870,1870,7480,2021-10-05 15:31:12.326,-0.2272510528564453,
1871,1871,7484,2021-10-05 15:31:12.330,-0.243686040242513,
1872,1872,7488,2021-10-05 15:31:12.334,-0.1349163055419922,
1873,1873,7492,2021-10-05 15:31:12.338,-0.2979214986165365,
1874,1874,7496,2021-10-05 15:31:12.342,-0.1371574401855469,
1875,1875,7500,2021-10-05 15:31:12.346,-0.2229181925455729,
1876,1876,7504,2021-10-05 15:31:12.350,-0.2493635813395182,
1877,1877,7508,2021-10-05 15:31:12.354,-0.1447772979736328,
1878,1878,7512,2021-10-05 15:31:12.358,-0.3116671244303385,
1879,1879,7516,2021-10-05 15:31:12.362,-0.1492595672607422,
1880,1880,7520,2021-10-05 15:31:12.366,-0.2251593271891276,
1881,1881,7524,2021-10-05 15:31:12.370,-0.2492141723632812,
1882,1882,7528,2021-10-05 15:31:12.374,-0.1544888814290364,
1883,1883,7532,2021-10-05 15:31:12.378,-0.3204822540283203,
1884,1884,7536,2021-10-05 15:31:12.382,-0.1603158315022786,
1885,1885,7540,2021-10-05 15:31:12.386,-0.2402496337890625,
1886,1886,7544,2021-10-05 15:31:12.390,-0.265350341796875,
1887,1887,7548,2021-10-05 15:31:12.394,-0.1706250508626302,
1888,1888,7552,2021-10-05 15:31:12.398,-0.3470770517985026,
1889,1889,7556,2021-10-05 15:31:12.402,-0.1969210306803385,
1890,1890,7560,2021-10-05 15:31:12.406,-0.2783489227294922,
1891,1891,7564,2021-10-05 15:31:12.410,-0.3040472666422526,
1892,1892,7568,2021-10-05 15:31:12.414,-0.2123101552327474,
1893,1893,7572,2021-10-05 15:31:12.418,-0.3845787048339844,
1894,1894,7576,2021-10-05 15:31:12.422,-0.2160453796386719,
1895,1895,7580,2021-10-05 15:31:12.426,-0.2735678354899089,
1896,1896,7584,2021-10-05 15:31:12.430,-0.2810382843017578,
1897,1897,7588,2021-10-05 15:31:12.434,-0.1743602752685547,
1898,1898,7592,2021-10-05 15:31:12.438,-0.3269068400065104,
1899,1899,7596,2021-10-05 15:31:12.442,-0.1495583852132161,
1900,1900,7600,2021-10-05 15:31:12.446,-0.2057361602783203,
1901,1901,7604,2021-10-05 15:31:12.450,-0.2103678385416666,
1902,1902,7608,2021-10-05 15:31:12.454,-0.0993569691975911,
1903,1903,7612,2021-10-05 15:31:12.458,-0.2626609802246094,
1904,1904,7616,2021-10-05 15:31:12.462,-0.1078732808430989,
1905,1905,7620,2021-10-05 15:31:12.466,-0.1930363972981771,
1906,1906,7624,2021-10-05 15:31:12.470,-0.2197806040445963,
1907,1907,7628,2021-10-05 15:31:12.474,-0.1187801361083984,
1908,1908,7632,2021-10-05 15:31:12.478,-0.2810382843017578,
1909,1909,7636,2021-10-05 15:31:12.482,-0.1195271809895833,
1910,1910,7640,2021-10-05 15:31:12.486,-0.1952775319417318,
1911,1911,7644,2021-10-05 15:31:12.490,-0.2170912424723307,
1912,1912,7648,2021-10-05 15:31:12.494,-0.1169872283935547,
1913,1913,7652,2021-10-05 15:31:12.498,-0.2813371022542318,
1914,1914,7656,2021-10-05 15:31:12.502,-0.1271470387776692,
1915,1915,7660,2021-10-05 15:31:12.506,-0.2129077911376953,
1916,1916,7664,2021-10-05 15:31:12.510,-0.243686040242513,
1917,1917,7668,2021-10-05 15:31:12.514,-0.1498572031656901,
1918,1918,7672,2021-10-05 15:31:12.518,-0.3239186604817708,
1919,1919,7676,2021-10-05 15:31:12.522,-0.1782449086507161,
1920,1920,7680,2021-10-05 15:31:12.526,-0.2592245737711589,
1921,1921,7684,2021-10-05 15:31:12.530,-0.2808888753255208,
1922,1922,7688,2021-10-05 15:31:12.534,-0.1769002278645833,
1923,1923,7692,2021-10-05 15:31:12.538,-0.330343246459961,
1924,1924,7696,2021-10-05 15:31:12.542,-0.1680850982666016,
1925,1925,7700,2021-10-05 15:31:12.546,-0.2398014068603516,
1926,1926,7704,2021-10-05 15:31:12.550,-0.2529493967692057,
1927,1927,7708,2021-10-05 15:31:12.554,-0.1456737518310547,
1928,1928,7712,2021-10-05 15:31:12.558,-0.3076330820719401,
1929,1929,7716,2021-10-05 15:31:12.562,-0.1525465647379557,
1930,1930,7720,2021-10-05 15:31:12.566,-0.2320321400960286,
1931,1931,7724,2021-10-05 15:31:12.570,-0.2719243367513021,
1932,1932,7728,2021-10-05 15:31:12.574,-0.1637522379557291,
1933,1933,7732,2021-10-05 15:31:12.578,-0.3107706705729167,
1934,1934,7736,2021-10-05 15:31:12.582,-0.1513512929280599,
1935,1935,7740,2021-10-05 15:31:12.586,-0.2305380503336588,
1936,1936,7744,2021-10-05 15:31:12.590,-0.257879892985026,
1937,1937,7748,2021-10-05 15:31:12.594,-0.1642004648844401,
1938,1938,7752,2021-10-05 15:31:12.598,-0.3282515207926432,
1939,1939,7756,2021-10-05 15:31:12.602,-0.1737626393636067,
1940,1940,7760,2021-10-05 15:31:12.606,-0.2384567260742187,
1941,1941,7764,2021-10-05 15:31:12.610,-0.2492141723632812,
1942,1942,7768,2021-10-05 15:31:12.614,-0.1452255249023437,
1943,1943,7772,2021-10-05 15:31:12.618,-0.301656723022461,
1944,1944,7776,2021-10-05 15:31:12.622,-0.1473172505696614,
1945,1945,7780,2021-10-05 15:31:12.626,-0.2193323771158854,
1946,1946,7784,2021-10-05 15:31:12.630,-0.2399508158365885,
1947,1947,7788,2021-10-05 15:31:12.634,-0.1471678415934245,
1948,1948,7792,2021-10-05 15:31:12.638,-0.3049437204996745,
1949,1949,7796,2021-10-05 15:31:12.642,-0.1465702056884766,
1950,1950,7800,2021-10-05 15:31:12.646,-0.2141030629475911,
1951,1951,7804,2021-10-05 15:31:12.650,-0.2360661824544271,
1952,1952,7808,2021-10-05 15:31:12.654,-0.1414903004964192,
1953,1953,7812,2021-10-05 15:31:12.658,-0.3044954935709635,
1954,1954,7816,2021-10-05 15:31:12.662,-0.1642004648844401,
1955,1955,7820,2021-10-05 15:31:12.666,-0.2421919504801432,
1956,1956,7824,2021-10-05 15:31:12.670,-0.2595233917236328,
1957,1957,7828,2021-10-05 15:31:12.674,-0.1644992828369141,
1958,1958,7832,2021-10-05 15:31:12.678,-0.3139082590738932,
1959,1959,7836,2021-10-05 15:31:12.682,-0.1586723327636719,
1960,1960,7840,2021-10-05 15:31:12.686,-0.2256075541178385,
1961,1961,7844,2021-10-05 15:31:12.690,-0.251007080078125,
1962,1962,7848,2021-10-05 15:31:12.694,-0.1528453826904297,
1963,1963,7852,2021-10-05 15:31:12.698,-0.3112188975016276,
1964,1964,7856,2021-10-05 15:31:12.702,-0.1683839162190755,
1965,1965,7860,2021-10-05 15:31:12.706,-0.2320321400960286,
1966,1966,7864,2021-10-05 15:31:12.710,-0.2548917134602865,
1967,1967,7868,2021-10-05 15:31:12.714,-0.1570288340250651,
1968,1968,7872,2021-10-05 15:31:12.718,-0.301507314046224,
1969,1969,7876,2021-10-05 15:31:12.722,-0.1597181955973307,
1970,1970,7880,2021-10-05 15:31:12.726,-0.2242628733317057,
1971,1971,7884,2021-10-05 15:31:12.730,-0.2423413594563802,
1972,1972,7888,2021-10-05 15:31:12.734,-0.1479148864746094,
1973,1973,7892,2021-10-05 15:31:12.738,-0.3058401743570964,
1974,1974,7896,2021-10-05 15:31:12.742,-0.172268549601237,
1975,1975,7900,2021-10-05 15:31:12.746,-0.2351697285970052,
1976,1976,7904,2021-10-05 15:31:12.750,-0.2429389953613281,
1977,1977,7908,2021-10-05 15:31:12.754,-0.135962168375651,
1978,1978,7912,2021-10-05 15:31:12.758,-0.2889569600423177,
1979,1979,7916,2021-10-05 15:31:12.762,-0.1528453826904297,
1980,1980,7920,2021-10-05 15:31:12.766,-0.2167924245198568,
1981,1981,7924,2021-10-05 15:31:12.770,-0.2190335591634115,
1982,1982,7928,2021-10-05 15:31:12.774,-0.1208718617757161,
1983,1983,7932,2021-10-05 15:31:12.778,-0.2911980946858724,
1984,1984,7936,2021-10-05 15:31:12.782,-0.1703262329101562,
1985,1985,7940,2021-10-05 15:31:12.786,-0.2592245737711589,
1986,1986,7944,2021-10-05 15:31:12.790,-0.2907498677571615,
1987,1987,7948,2021-10-05 15:31:12.794,-0.1946798960367838,
1988,1988,7952,2021-10-05 15:31:12.798,-0.3358713785807292,
1989,1989,7956,2021-10-05 15:31:12.802,-0.1763025919596354,
1990,1990,7960,2021-10-05 15:31:12.806,-0.2386061350504557,
1991,1991,7964,2021-10-05 15:31:12.810,-0.2620633443196615,
1992,1992,7968,2021-10-05 15:31:12.814,-0.1676368713378906,
1993,1993,7972,2021-10-05 15:31:12.818,-0.3044954935709635,
1994,1994,7976,2021-10-05 15:31:12.822,-0.1485125223795573,
1995,1995,7980,2021-10-05 15:31:12.826,-0.21514892578125,
1996,1996,7984,2021-10-05 15:31:12.830,-0.2402496337890625,
1997,1997,7988,2021-10-05 15:31:12.834,-0.1580746968587239,
1998,1998,7992,2021-10-05 15:31:12.838,-0.344088872273763,
1999,1999,7996,2021-10-05 15:31:12.842,-0.2350203196207682,
2000,2000,8000,2021-10-05 15:31:12.846,-0.2770042419433594,
2001,2001,8004,2021-10-05 15:31:12.850,-0.1636028289794922,
2002,2002,8008,2021-10-05 15:31:12.854,0.1450761159261067,
2003,2003,8012,2021-10-05 15:31:12.858,0.193783442179362,
2004,2004,8016,2021-10-05 15:31:12.862,0.452410380045573,
2005,2005,8020,2021-10-05 15:31:12.866,0.4059441884358724,
2006,2006,8024,2021-10-05 15:31:12.870,0.150753657023112,
2007,2007,8028,2021-10-05 15:31:12.874,-0.279394785563151,
2008,2008,8032,2021-10-05 15:31:12.878,-1.077537536621094,
2009,2009,8036,2021-10-05 15:31:12.882,-1.334520975748698,
2010,2010,8040,2021-10-05 15:31:12.886,-1.226647694905599,
2011,2011,8044,2021-10-05 15:31:12.890,-0.8124860127766929,
2012,2012,8048,2021-10-05 15:31:12.894,-0.3131612141927083,
2013,2013,8052,2021-10-05 15:31:12.898,-0.229342778523763,
2014,2014,8056,2021-10-05 15:31:12.902,-0.0253995259602864,
2015,2015,8060,2021-10-05 15:31:12.906,-0.0906912485758463,
2016,2016,8064,2021-10-05 15:31:12.910,-0.1205730438232422,
2017,2017,8068,2021-10-05 15:31:12.914,-0.028537114461263,
2018,2018,8072,2021-10-05 15:31:12.918,-0.1674874623616536,
2019,2019,8076,2021-10-05 15:31:12.922,-0.013895034790039,
2020,2020,8080,2021-10-05 15:31:12.926,-0.0803820292154948,
2021,2021,8084,2021-10-05 15:31:12.930,-0.114596684773763,
2022,2022,8088,2021-10-05 15:31:12.934,-0.0378004709879557,
2023,2023,8092,2021-10-05 15:31:12.938,-0.2090231577555338,
2024,2024,8096,2021-10-05 15:31:12.942,-0.0866572062174479,
2025,2025,8100,2021-10-05 15:31:12.946,-0.1700274149576823,
2026,2026,8104,2021-10-05 15:31:12.950,-0.1918411254882812,
2027,2027,8108,2021-10-05 15:31:12.954,-0.0959205627441406,
2028,2028,8112,2021-10-05 15:31:12.958,-0.2477200826009115,
2029,2029,8116,2021-10-05 15:31:12.962,-0.1198259989420573,
2030,2030,8120,2021-10-05 15:31:12.966,-0.2060349782307943,
2031,2031,8124,2021-10-05 15:31:12.970,-0.2475706736246745,
2032,2032,8128,2021-10-05 15:31:12.974,-0.1742108662923177,
2033,2033,8132,2021-10-05 15:31:12.978,-0.3307914733886719,
2034,2034,8136,2021-10-05 15:31:12.982,-0.1858647664388021,
2035,2035,8140,2021-10-05 15:31:12.986,-0.2526505788167318,
2036,2036,8144,2021-10-05 15:31:12.990,-0.2784983317057292,
2037,2037,8148,2021-10-05 15:31:12.994,-0.1851177215576172,
2038,2038,8152,2021-10-05 15:31:12.998,-0.3261597951253255,
2039,2039,8156,2021-10-05 15:31:13.002,-0.1797389984130859,
2040,2040,8160,2021-10-05 15:31:13.006,-0.2406978607177734,
2041,2041,8164,2021-10-05 15:31:13.010,-0.251156489054362,
2042,2042,8168,2021-10-05 15:31:13.014,-0.150305430094401,
2043,2043,8172,2021-10-05 15:31:13.018,-0.2910486857096354,
2044,2044,8176,2021-10-05 15:31:13.022,-0.1512018839518229,
2045,2045,8180,2021-10-05 15:31:13.026,-0.2253087361653646,
