,Unnamed: 0,Tick Time,RTC Time,ECG,marker
0,0,2,2021-10-01 15:13:49.863,-0.2196311950683594,
1,1,6,2021-10-01 15:13:49.867,-0.2474212646484375,
2,2,10,2021-10-01 15:13:49.871,-0.1958751678466797,
3,3,14,2021-10-01 15:13:49.875,-0.2338250478108724,
4,4,18,2021-10-01 15:13:49.879,-0.2215735117594401,
5,5,22,2021-10-01 15:13:49.883,-0.2160453796386719,
6,6,26,2021-10-01 15:13:49.887,-0.2505588531494141,
7,7,30,2021-10-01 15:13:49.891,-0.2012538909912109,
8,8,34,2021-10-01 15:13:49.895,-0.2383073170979818,
9,9,38,2021-10-01 15:13:49.899,-0.2194817860921224,
10,10,42,2021-10-01 15:13:49.903,-0.2126089731852213,
11,11,46,2021-10-01 15:13:49.907,-0.2486165364583333,
12,12,50,2021-10-01 15:13:49.911,-0.2012538909912109,
13,13,54,2021-10-01 15:13:49.915,-0.2386061350504557,
14,14,58,2021-10-01 15:13:49.919,-0.2172406514485677,
15,15,62,2021-10-01 15:13:49.923,-0.2063337961832682,
16,16,66,2021-10-01 15:13:49.927,-0.2374108632405599,
17,17,70,2021-10-01 15:13:49.931,-0.1884047190348307,
18,18,74,2021-10-01 15:13:49.935,-0.2253087361653646,
19,19,78,2021-10-01 15:13:49.939,-0.2055867513020833,
20,20,82,2021-10-01 15:13:49.943,-0.1916917165120443,
21,21,86,2021-10-01 15:13:49.947,-0.2232170104980469,
22,22,90,2021-10-01 15:13:49.951,-0.1769002278645833,
23,23,94,2021-10-01 15:13:49.955,-0.2190335591634115,
24,24,98,2021-10-01 15:13:49.959,-0.2031962076822916,
25,25,102,2021-10-01 15:13:49.963,-0.1943810780843099,
26,26,106,2021-10-01 15:13:49.967,-0.2276992797851562,
27,27,110,2021-10-01 15:13:49.971,-0.172268549601237,
28,28,114,2021-10-01 15:13:49.975,-0.2025985717773437,
29,29,118,2021-10-01 15:13:49.979,-0.2347215016682943,
30,30,122,2021-10-01 15:13:49.983,-0.2126089731852213,
31,31,126,2021-10-01 15:13:49.987,-0.2590751647949219,
32,32,130,2021-10-01 15:13:49.991,-0.214999516805013,
33,33,134,2021-10-01 15:13:49.995,-0.2305380503336588,
34,34,138,2021-10-01 15:13:49.999,-0.236514409383138,
35,35,142,2021-10-01 15:13:50.003,-0.1999092102050781,
36,36,146,2021-10-01 15:13:50.007,-0.2495129903157552,
37,37,150,2021-10-01 15:13:50.011,-0.2135054270426432,
38,38,154,2021-10-01 15:13:50.015,-0.2335262298583984,
39,39,158,2021-10-01 15:13:50.019,-0.2418931325276693,
40,40,162,2021-10-01 15:13:50.023,-0.2003574371337891,
41,41,166,2021-10-01 15:13:50.027,-0.2457777659098307,
42,42,170,2021-10-01 15:13:50.031,-0.2039432525634766,
43,43,174,2021-10-01 15:13:50.035,-0.2287451426188151,
44,44,178,2021-10-01 15:13:50.039,-0.2401002248128255,
45,45,182,2021-10-01 15:13:50.043,-0.2022997538248698,
46,46,186,2021-10-01 15:13:50.047,-0.2478694915771484,
47,47,190,2021-10-01 15:13:50.051,-0.2060349782307943,
48,48,194,2021-10-01 15:13:50.055,-0.2248605092366536,
49,49,198,2021-10-01 15:13:50.059,-0.2381579081217448,
50,50,202,2021-10-01 15:13:50.063,-0.2024491628011068,
51,51,206,2021-10-01 15:13:50.067,-0.2486165364583333,
52,52,210,2021-10-01 15:13:50.071,-0.2064832051595052,
53,53,214,2021-10-01 15:13:50.075,-0.2247111002604166,
54,54,218,2021-10-01 15:13:50.079,-0.2341238657633463,
55,55,222,2021-10-01 15:13:50.083,-0.1930363972981771,
56,56,226,2021-10-01 15:13:50.087,-0.2344226837158203,
57,57,230,2021-10-01 15:13:50.091,-0.1961739857991536,
58,58,234,2021-10-01 15:13:50.095,-0.2199300130208333,
59,59,238,2021-10-01 15:13:50.099,-0.229791005452474,
60,60,242,2021-10-01 15:13:50.103,-0.1870600382486979,
61,61,246,2021-10-01 15:13:50.107,-0.2194817860921224,
62,62,250,2021-10-01 15:13:50.111,-0.1644992828369141,
63,63,254,2021-10-01 15:13:50.115,-0.1869106292724609,
64,64,258,2021-10-01 15:13:50.119,-0.2133560180664062,
65,65,262,2021-10-01 15:13:50.123,-0.2030467987060547,
66,66,266,2021-10-01 15:13:50.127,-0.2692349751790365,
67,67,270,2021-10-01 15:13:50.131,-0.2424907684326172,
68,68,274,2021-10-01 15:13:50.135,-0.2596728006998698,
69,69,278,2021-10-01 15:13:50.139,-0.2605692545572917,
70,70,282,2021-10-01 15:13:50.143,-0.2169418334960937,
71,71,286,2021-10-01 15:13:50.147,-0.2557881673177083,
72,72,290,2021-10-01 15:13:50.151,-0.2073796590169271,
73,73,294,2021-10-01 15:13:50.155,-0.2215735117594401,
74,74,298,2021-10-01 15:13:50.159,-0.2247111002604166,
75,75,302,2021-10-01 15:13:50.163,-0.1878070831298828,
76,76,306,2021-10-01 15:13:50.167,-0.2332274119059245,
77,77,310,2021-10-01 15:13:50.171,-0.1954269409179687,
78,78,314,2021-10-01 15:13:50.175,-0.2181371053059896,
79,79,318,2021-10-01 15:13:50.179,-0.2324803670247396,
80,80,322,2021-10-01 15:13:50.183,-0.2191829681396484,
81,81,326,2021-10-01 15:13:50.187,-0.2980709075927735,
82,82,330,2021-10-01 15:13:50.191,-0.2708784739176432,
83,83,334,2021-10-01 15:13:50.195,-0.2308368682861328,
84,84,338,2021-10-01 15:13:50.199,-0.0808302561442057,
85,85,342,2021-10-01 15:13:50.203,0.2014032999674479,
86,86,346,2021-10-01 15:13:50.207,0.4428482055664063,
87,87,350,2021-10-01 15:13:50.211,0.6901200612386068,
88,88,354,2021-10-01 15:13:50.215,0.6054051717122396,
89,89,358,2021-10-01 15:13:50.219,0.1771990458170573,
90,90,362,2021-10-01 15:13:50.223,-0.5178515116373699,
91,91,366,2021-10-01 15:13:50.227,-1.2463696797688804,
92,92,370,2021-10-01 15:13:50.231,-1.6112263997395837,
93,93,374,2021-10-01 15:13:50.235,-1.616455713907878,
94,94,378,2021-10-01 15:13:50.239,-1.27161979675293,
95,95,382,2021-10-01 15:13:50.243,-0.7398732503255209,
96,96,386,2021-10-01 15:13:50.247,-0.3257115681966146,
97,97,390,2021-10-01 15:13:50.251,0.021365483601888,
98,98,394,2021-10-01 15:13:50.255,0.1425361633300781,
99,99,398,2021-10-01 15:13:50.259,0.1529947916666666,
100,100,402,2021-10-01 15:13:50.263,0.1561323801676432,
101,101,406,2021-10-01 15:13:50.267,0.0575224558512369,
102,102,410,2021-10-01 15:13:50.271,0.0533390045166015,
103,103,414,2021-10-01 15:13:50.275,-0.0052293141682942,
104,104,418,2021-10-01 15:13:50.279,-0.0472132364908854,
105,105,422,2021-10-01 15:13:50.283,-0.0386969248453776,
106,106,426,2021-10-01 15:13:50.287,-0.1053333282470703,
107,107,430,2021-10-01 15:13:50.291,-0.0897947947184244,
108,108,434,2021-10-01 15:13:50.295,-0.1352151234944661,
109,109,438,2021-10-01 15:13:50.299,-0.1739120483398437,
110,110,442,2021-10-01 15:13:50.303,-0.157626469930013,
111,111,446,2021-10-01 15:13:50.307,-0.2157465616861979,
112,112,450,2021-10-01 15:13:50.311,-0.1907952626546224,
113,113,454,2021-10-01 15:13:50.315,-0.2206770579020182,
114,114,458,2021-10-01 15:13:50.319,-0.2371120452880859,
115,115,462,2021-10-01 15:13:50.323,-0.207678476969401,
116,116,466,2021-10-01 15:13:50.327,-0.2565352121988932,
117,117,470,2021-10-01 15:13:50.331,-0.2194817860921224,
118,118,474,2021-10-01 15:13:50.335,-0.2460765838623047,
119,119,478,2021-10-01 15:13:50.339,-0.2593739827473958,
120,120,482,2021-10-01 15:13:50.343,-0.222619374593099,
121,121,486,2021-10-01 15:13:50.347,-0.2649021148681641,
122,122,490,2021-10-01 15:13:50.351,-0.2268028259277344,
123,123,494,2021-10-01 15:13:50.355,-0.2421919504801432,
124,124,498,2021-10-01 15:13:50.359,-0.2496623992919922,
125,125,502,2021-10-01 15:13:50.363,-0.2117125193277995,
126,126,506,2021-10-01 15:13:50.367,-0.2544434865315755,
127,127,510,2021-10-01 15:13:50.371,-0.2158959706624349,
128,128,514,2021-10-01 15:13:50.375,-0.2390543619791666,
129,129,518,2021-10-01 15:13:50.379,-0.2496623992919922,
130,130,522,2021-10-01 15:13:50.383,-0.2190335591634115,
131,131,526,2021-10-01 15:13:50.387,-0.2659479777018229,
132,132,530,2021-10-01 15:13:50.391,-0.222469965616862,
133,133,534,2021-10-01 15:13:50.395,-0.2381579081217448,
134,134,538,2021-10-01 15:13:50.399,-0.2456283569335937,
135,135,542,2021-10-01 15:13:50.403,-0.2109654744466146,
136,136,546,2021-10-01 15:13:50.407,-0.2541446685791016,
137,137,550,2021-10-01 15:13:50.411,-0.2133560180664062,
138,138,554,2021-10-01 15:13:50.415,-0.2327791849772135,
139,139,558,2021-10-01 15:13:50.419,-0.243984858194987,
140,140,562,2021-10-01 15:13:50.423,-0.2057361602783203,
141,141,566,2021-10-01 15:13:50.427,-0.2486165364583333,
142,142,570,2021-10-01 15:13:50.431,-0.2075290679931641,
143,143,574,2021-10-01 15:13:50.435,-0.2268028259277344,
144,144,578,2021-10-01 15:13:50.439,-0.2356179555257161,
145,145,582,2021-10-01 15:13:50.443,-0.2034950256347656,
146,146,586,2021-10-01 15:13:50.447,-0.2486165364583333,
147,147,590,2021-10-01 15:13:50.451,-0.207678476969401,
148,148,594,2021-10-01 15:13:50.455,-0.2302392323811849,
149,149,598,2021-10-01 15:13:50.459,-0.2402496337890625,
150,150,602,2021-10-01 15:13:50.463,-0.2031962076822916,
151,151,606,2021-10-01 15:13:50.467,-0.2465248107910156,
152,152,610,2021-10-01 15:13:50.471,-0.2058855692545573,
153,153,614,2021-10-01 15:13:50.475,-0.2275498708089193,
154,154,618,2021-10-01 15:13:50.479,-0.2351697285970052,
155,155,622,2021-10-01 15:13:50.483,-0.1957257588704427,
156,156,626,2021-10-01 15:13:50.487,-0.2371120452880859,
157,157,630,2021-10-01 15:13:50.491,-0.193634033203125,
158,158,634,2021-10-01 15:13:50.495,-0.2099196116129557,
159,159,638,2021-10-01 15:13:50.499,-0.2190335591634115,
160,160,642,2021-10-01 15:13:50.503,-0.1834742228190104,
161,161,646,2021-10-01 15:13:50.507,-0.2248605092366536,
162,162,650,2021-10-01 15:13:50.511,-0.1837730407714844,
163,163,654,2021-10-01 15:13:50.515,-0.2030467987060547,
164,164,658,2021-10-01 15:13:50.519,-0.2135054270426432,
165,165,662,2021-10-01 15:13:50.523,-0.1804860432942708,
166,166,666,2021-10-01 15:13:50.527,-0.2308368682861328,
167,167,670,2021-10-01 15:13:50.531,-0.193634033203125,
168,168,674,2021-10-01 15:13:50.535,-0.2178382873535156,
169,169,678,2021-10-01 15:13:50.539,-0.2300898234049479,
170,170,682,2021-10-01 15:13:50.543,-0.1948293050130208,
171,171,686,2021-10-01 15:13:50.547,-0.2408472696940104,
172,172,690,2021-10-01 15:13:50.551,-0.2042420705159505,
173,173,694,2021-10-01 15:13:50.555,-0.2274004618326823,
174,174,698,2021-10-01 15:13:50.559,-0.2398014068603516,
175,175,702,2021-10-01 15:13:50.563,-0.2036444346110026,
176,176,706,2021-10-01 15:13:50.567,-0.250857671101888,
177,177,710,2021-10-01 15:13:50.571,-0.2135054270426432,
178,178,714,2021-10-01 15:13:50.575,-0.2383073170979818,
179,179,718,2021-10-01 15:13:50.579,-0.2466742197672526,
180,180,722,2021-10-01 15:13:50.583,-0.2058855692545573,
181,181,726,2021-10-01 15:13:50.587,-0.2475706736246745,
182,182,730,2021-10-01 15:13:50.591,-0.2073796590169271,
183,183,734,2021-10-01 15:13:50.595,-0.2279980977376302,
184,184,738,2021-10-01 15:13:50.599,-0.2389049530029297,
185,185,742,2021-10-01 15:13:50.603,-0.2018515268961588,
186,186,746,2021-10-01 15:13:50.607,-0.2460765838623047,
187,187,750,2021-10-01 15:13:50.611,-0.2055867513020833,
188,188,754,2021-10-01 15:13:50.615,-0.2274004618326823,
189,189,758,2021-10-01 15:13:50.619,-0.2402496337890625,
190,190,762,2021-10-01 15:13:50.623,-0.2039432525634766,
191,191,766,2021-10-01 15:13:50.627,-0.2454789479573568,
192,192,770,2021-10-01 15:13:50.631,-0.207977294921875,
193,193,774,2021-10-01 15:13:50.635,-0.2321815490722656,
194,194,778,2021-10-01 15:13:50.639,-0.2395025889078776,
195,195,782,2021-10-01 15:13:50.643,-0.1931858062744141,
196,196,786,2021-10-01 15:13:50.647,-0.2335262298583984,
197,197,790,2021-10-01 15:13:50.651,-0.1945304870605469,
198,198,794,2021-10-01 15:13:50.655,-0.2185853322347005,
199,199,798,2021-10-01 15:13:50.659,-0.2263545989990234,
200,200,802,2021-10-01 15:13:50.663,-0.1740614573160807,
201,201,806,2021-10-01 15:13:50.667,-0.2037938435872396,
202,202,810,2021-10-01 15:13:50.671,-0.1689815521240234,
203,203,814,2021-10-01 15:13:50.675,-0.2030467987060547,
204,204,818,2021-10-01 15:13:50.679,-0.2330780029296875,
205,205,822,2021-10-01 15:13:50.683,-0.2133560180664062,
206,206,826,2021-10-01 15:13:50.687,-0.2762571970621745,
207,207,830,2021-10-01 15:13:50.691,-0.24383544921875,
208,208,834,2021-10-01 15:13:50.695,-0.2547423044840495,
209,209,838,2021-10-01 15:13:50.699,-0.251156489054362,
210,210,842,2021-10-01 15:13:50.703,-0.1993115743001302,
211,211,846,2021-10-01 15:13:50.707,-0.236962636311849,
212,212,850,2021-10-01 15:13:50.711,-0.1990127563476562,
213,213,854,2021-10-01 15:13:50.715,-0.2235158284505208,
214,214,858,2021-10-01 15:13:50.719,-0.2306874593098958,
215,215,862,2021-10-01 15:13:50.723,-0.1943810780843099,
216,216,866,2021-10-01 15:13:50.727,-0.2414449055989583,
217,217,870,2021-10-01 15:13:50.731,-0.201104482014974,
218,218,874,2021-10-01 15:13:50.735,-0.2185853322347005,
219,219,878,2021-10-01 15:13:50.739,-0.2406978607177734,
220,220,882,2021-10-01 15:13:50.743,-0.2348709106445312,
221,221,886,2021-10-01 15:13:50.747,-0.3074836730957032,
222,222,890,2021-10-01 15:13:50.751,-0.2447319030761719,
223,223,894,2021-10-01 15:13:50.755,-0.1537418365478516,
224,224,898,2021-10-01 15:13:50.759,0.0454203287760416,
225,225,902,2021-10-01 15:13:50.763,0.3473758697509766,
226,226,906,2021-10-01 15:13:50.767,0.5773162841796876,
227,227,910,2021-10-01 15:13:50.771,0.6975905100504558,
228,228,914,2021-10-01 15:13:50.775,0.4198392232259115,
229,229,918,2021-10-01 15:13:50.779,-0.2085749308268229,
230,230,922,2021-10-01 15:13:50.783,-0.9226004282633464,
231,231,926,2021-10-01 15:13:50.787,-1.5172481536865237,
232,232,930,2021-10-01 15:13:50.791,-1.6526126861572268,
233,233,934,2021-10-01 15:13:50.795,-1.442693074544271,
234,234,938,2021-10-01 15:13:50.799,-0.9932708740234376,
235,235,942,2021-10-01 15:13:50.803,-0.4657077789306641,
236,236,946,2021-10-01 15:13:50.807,-0.1295375823974609,
237,237,950,2021-10-01 15:13:50.811,0.1123555501302083,
238,238,954,2021-10-01 15:13:50.815,0.1613616943359375,
239,239,958,2021-10-01 15:13:50.819,0.1373068491617838,
240,240,962,2021-10-01 15:13:50.823,0.1255035400390625,
241,241,966,2021-10-01 15:13:50.827,0.0349617004394531,
242,242,970,2021-10-01 15:13:50.831,0.0395933787027994,
243,243,974,2021-10-01 15:13:50.835,-0.0149408976236979,
244,244,978,2021-10-01 15:13:50.839,-0.0546836853027343,
245,245,982,2021-10-01 15:13:50.843,-0.0458685557047526,
246,246,986,2021-10-01 15:13:50.847,-0.1186307271321614,
247,247,990,2021-10-01 15:13:50.851,-0.1104132334391276,
248,248,994,2021-10-01 15:13:50.855,-0.1594193776448567,
249,249,998,2021-10-01 15:13:50.859,-0.1921399434407552,
250,250,1002,2021-10-01 15:13:50.863,-0.172268549601237,
251,251,1006,2021-10-01 15:13:50.867,-0.2282969156901041,
252,252,1010,2021-10-01 15:13:50.871,-0.1961739857991536,
253,253,1014,2021-10-01 15:13:50.875,-0.2233664194742838,
254,254,1018,2021-10-01 15:13:50.879,-0.2399508158365885,
255,255,1022,2021-10-01 15:13:50.883,-0.2114137013753255,
256,256,1026,2021-10-01 15:13:50.887,-0.2625115712483724,
257,257,1030,2021-10-01 15:13:50.891,-0.2259063720703125,
258,258,1034,2021-10-01 15:13:50.895,-0.2502600351969401,
259,259,1038,2021-10-01 15:13:50.899,-0.2559375762939453,
260,260,1042,2021-10-01 15:13:50.903,-0.2194817860921224,
261,261,1046,2021-10-01 15:13:50.907,-0.2605692545572917,
262,262,1050,2021-10-01 15:13:50.911,-0.2172406514485677,
263,263,1054,2021-10-01 15:13:50.915,-0.2341238657633463,
264,264,1058,2021-10-01 15:13:50.919,-0.2433872222900391,
265,265,1062,2021-10-01 15:13:50.923,-0.2100690205891927,
266,266,1066,2021-10-01 15:13:50.927,-0.2589257558186849,
267,267,1070,2021-10-01 15:13:50.931,-0.2179876963297526,
268,268,1074,2021-10-01 15:13:50.935,-0.2380084991455078,
269,269,1078,2021-10-01 15:13:50.939,-0.2523517608642578,
270,270,1082,2021-10-01 15:13:50.943,-0.2176888783772786,
271,271,1086,2021-10-01 15:13:50.947,-0.258477528889974,
272,272,1090,2021-10-01 15:13:50.951,-0.2136548360188802,
273,273,1094,2021-10-01 15:13:50.955,-0.236962636311849,
274,274,1098,2021-10-01 15:13:50.959,-0.2535470326741537,
275,275,1102,2021-10-01 15:13:50.963,-0.2172406514485677,
276,276,1106,2021-10-01 15:13:50.967,-0.258029301961263,
277,277,1110,2021-10-01 15:13:50.971,-0.2106666564941406,
278,278,1114,2021-10-01 15:13:50.975,-0.2014032999674479,
279,279,1118,2021-10-01 15:13:50.979,-0.2463754018147786,
280,280,1122,2021-10-01 15:13:50.983,-0.207827885945638,
281,281,1126,2021-10-01 15:13:50.987,-0.2529493967692057,
282,282,1130,2021-10-01 15:13:50.991,-0.2320321400960286,
283,283,1134,2021-10-01 15:13:50.995,-0.2212746938069661,
284,284,1138,2021-10-01 15:13:50.999,-0.251305898030599,
285,285,1142,2021-10-01 15:13:51.003,-0.2030467987060547,
286,286,1146,2021-10-01 15:13:51.007,-0.2444330851236979,
287,287,1150,2021-10-01 15:13:51.011,-0.2245616912841797,
288,288,1154,2021-10-01 15:13:51.015,-0.2108160654703776,
289,289,1158,2021-10-01 15:13:51.019,-0.2423413594563802,
290,290,1162,2021-10-01 15:13:51.023,-0.1958751678466797,
291,291,1166,2021-10-01 15:13:51.027,-0.2386061350504557,
292,292,1170,2021-10-01 15:13:51.031,-0.2208264668782552,
293,293,1174,2021-10-01 15:13:51.035,-0.2102184295654297,
294,294,1178,2021-10-01 15:13:51.039,-0.236962636311849,
295,295,1182,2021-10-01 15:13:51.043,-0.1875082651774088,
296,296,1186,2021-10-01 15:13:51.047,-0.2254581451416016,
297,297,1190,2021-10-01 15:13:51.051,-0.2072302500406901,
298,298,1194,2021-10-01 15:13:51.055,-0.1967716217041016,
299,299,1198,2021-10-01 15:13:51.059,-0.229791005452474,
300,300,1202,2021-10-01 15:13:51.063,-0.1819801330566406,
301,301,1206,2021-10-01 15:13:51.067,-0.2215735117594401,
302,302,1210,2021-10-01 15:13:51.071,-0.2022997538248698,
303,303,1214,2021-10-01 15:13:51.075,-0.1919905344645182,
304,304,1218,2021-10-01 15:13:51.079,-0.2242628733317057,
305,305,1222,2021-10-01 15:13:51.083,-0.1786931355794271,Start
306,306,1226,2021-10-01 15:13:51.087,-0.2265040079752604,
307,307,1230,2021-10-01 15:13:51.091,-0.2144018809000651,
308,308,1234,2021-10-01 15:13:51.095,-0.2052879333496094,
309,309,1238,2021-10-01 15:13:51.099,-0.2333768208821615,
310,310,1242,2021-10-01 15:13:51.103,-0.186312993367513,
311,311,1246,2021-10-01 15:13:51.107,-0.2294921875,
312,312,1250,2021-10-01 15:13:51.111,-0.2179876963297526,
313,313,1254,2021-10-01 15:13:51.115,-0.2200794219970703,
314,314,1258,2021-10-01 15:13:51.119,-0.2533976236979167,
315,315,1262,2021-10-01 15:13:51.123,-0.2058855692545573,
316,316,1266,2021-10-01 15:13:51.127,-0.2502600351969401,
317,317,1270,2021-10-01 15:13:51.131,-0.2312850952148437,
318,318,1274,2021-10-01 15:13:51.135,-0.2176888783772786,
319,319,1278,2021-10-01 15:13:51.139,-0.2498118082682291,
320,320,1282,2021-10-01 15:13:51.143,-0.1994609832763672,
321,321,1286,2021-10-01 15:13:51.147,-0.2421919504801432,
322,322,1290,2021-10-01 15:13:51.151,-0.2287451426188151,
323,323,1294,2021-10-01 15:13:51.155,-0.2184359232584635,
324,324,1298,2021-10-01 15:13:51.159,-0.2489153544108073,
325,325,1302,2021-10-01 15:13:51.163,-0.2014032999674479,
326,326,1306,2021-10-01 15:13:51.167,-0.2405484517415365,
327,327,1310,2021-10-01 15:13:51.171,-0.2232170104980469,
328,328,1314,2021-10-01 15:13:51.175,-0.2129077911376953,
329,329,1318,2021-10-01 15:13:51.179,-0.2430884043375651,
330,330,1322,2021-10-01 15:13:51.183,-0.1946798960367838,
331,331,1326,2021-10-01 15:13:51.187,-0.2377096811930338,
332,332,1330,2021-10-01 15:13:51.191,-0.2242628733317057,
333,333,1334,2021-10-01 15:13:51.195,-0.2145512898763021,
334,334,1338,2021-10-01 15:13:51.199,-0.2457777659098307,
335,335,1342,2021-10-01 15:13:51.203,-0.1958751678466797,
336,336,1346,2021-10-01 15:13:51.207,-0.2341238657633463,
337,337,1350,2021-10-01 15:13:51.211,-0.2106666564941406,
338,338,1354,2021-10-01 15:13:51.215,-0.200955073038737,
339,339,1358,2021-10-01 15:13:51.219,-0.2248605092366536,
340,340,1362,2021-10-01 15:13:51.223,-0.165096918741862,
341,341,1366,2021-10-01 15:13:51.227,-0.1987139383951823,
342,342,1370,2021-10-01 15:13:51.231,-0.18646240234375,
343,343,1374,2021-10-01 15:13:51.235,-0.1946798960367838,
344,344,1378,2021-10-01 15:13:51.239,-0.2487659454345703,
345,345,1382,2021-10-01 15:13:51.243,-0.2202288309733073,
346,346,1386,2021-10-01 15:13:51.247,-0.265499750773112,
347,347,1390,2021-10-01 15:13:51.251,-0.2471224466959635,
348,348,1394,2021-10-01 15:13:51.255,-0.2309862772623698,
349,349,1398,2021-10-01 15:13:51.259,-0.2563858032226563,
350,350,1402,2021-10-01 15:13:51.263,-0.2030467987060547,
351,351,1406,2021-10-01 15:13:51.267,-0.2384567260742187,
352,352,1410,2021-10-01 15:13:51.271,-0.2190335591634115,
353,353,1414,2021-10-01 15:13:51.275,-0.2058855692545573,
354,354,1418,2021-10-01 15:13:51.279,-0.2386061350504557,
355,355,1422,2021-10-01 15:13:51.283,-0.193634033203125,
356,356,1426,2021-10-01 15:13:51.287,-0.2338250478108724,
357,357,1430,2021-10-01 15:13:51.291,-0.2103678385416666,
358,358,1434,2021-10-01 15:13:51.295,-0.2024491628011068,
359,359,1438,2021-10-01 15:13:51.299,-0.258328119913737,
360,360,1442,2021-10-01 15:13:51.303,-0.2471224466959635,
361,361,1446,2021-10-01 15:13:51.307,-0.3052425384521485,
362,362,1450,2021-10-01 15:13:51.311,-0.2342732747395833,
363,363,1454,2021-10-01 15:13:51.315,-0.071417490641276,
364,364,1458,2021-10-01 15:13:51.319,0.1408926645914713,
365,365,1462,2021-10-01 15:13:51.323,0.466006596883138,
366,366,1466,2021-10-01 15:13:51.327,0.6542619069417318,
367,367,1470,2021-10-01 15:13:51.331,0.6366316477457683,
368,368,1474,2021-10-01 15:13:51.335,0.2466742197672526,
369,369,1478,2021-10-01 15:13:51.339,-0.4982789357503255,
370,370,1482,2021-10-01 15:13:51.343,-1.1598618825276694,
371,371,1486,2021-10-01 15:13:51.347,-1.6213862101236982,
372,372,1490,2021-10-01 15:13:51.351,-1.6240755716959638,
373,373,1494,2021-10-01 15:13:51.355,-1.2841701507568362,
374,374,1498,2021-10-01 15:13:51.359,-0.8290704091389975,
375,375,1502,2021-10-01 15:13:51.363,-0.3236198425292969,
376,376,1506,2021-10-01 15:13:51.367,-0.0394439697265625,
377,377,1510,2021-10-01 15:13:51.371,0.1329739888509114,
378,378,1514,2021-10-01 15:13:51.375,0.178991953531901,
379,379,1518,2021-10-01 15:13:51.379,0.1156425476074218,
380,380,1522,2021-10-01 15:13:51.383,0.1101144154866536,
381,381,1526,2021-10-01 15:13:51.387,0.0270430246988932,
382,382,1530,2021-10-01 15:13:51.391,0.0110562642415364,
383,383,1534,2021-10-01 15:13:51.395,-0.0092633565266927,
384,384,1538,2021-10-01 15:13:51.399,-0.0733598073323567,
385,385,1542,2021-10-01 15:13:51.403,-0.0575224558512369,
386,386,1546,2021-10-01 15:13:51.407,-0.1272964477539062,
387,387,1550,2021-10-01 15:13:51.411,-0.1328245798746745,
388,388,1554,2021-10-01 15:13:51.415,-0.1423867543538411,
389,389,1558,2021-10-01 15:13:51.419,-0.1964728037516276,
390,390,1562,2021-10-01 15:13:51.423,-0.1640510559082031,
391,391,1566,2021-10-01 15:13:51.427,-0.2191829681396484,
392,392,1570,2021-10-01 15:13:51.431,-0.2181371053059896,
393,393,1574,2021-10-01 15:13:51.435,-0.2187347412109375,
394,394,1578,2021-10-01 15:13:51.439,-0.2516047159830729,
395,395,1582,2021-10-01 15:13:51.443,-0.2043914794921875,
396,396,1586,2021-10-01 15:13:51.447,-0.2505588531494141,
397,397,1590,2021-10-01 15:13:51.451,-0.2377096811930338,
398,398,1594,2021-10-01 15:13:51.455,-0.2327791849772135,
399,399,1598,2021-10-01 15:13:51.459,-0.2638562520345052,
400,400,1602,2021-10-01 15:13:51.463,-0.2135054270426432,
401,401,1606,2021-10-01 15:13:51.467,-0.2544434865315755,
402,402,1610,2021-10-01 15:13:51.471,-0.2402496337890625,
403,403,1614,2021-10-01 15:13:51.475,-0.2314345041910807,
404,404,1618,2021-10-01 15:13:51.479,-0.2605692545572917,
405,405,1622,2021-10-01 15:13:51.483,-0.207977294921875,
406,406,1626,2021-10-01 15:13:51.487,-0.2487659454345703,
407,407,1630,2021-10-01 15:13:51.491,-0.2320321400960286,
408,408,1634,2021-10-01 15:13:51.495,-0.222021738688151,
409,409,1638,2021-10-01 15:13:51.499,-0.2605692545572917,
410,410,1642,2021-10-01 15:13:51.503,-0.2072302500406901,
411,411,1646,2021-10-01 15:13:51.507,-0.251156489054362,
412,412,1650,2021-10-01 15:13:51.511,-0.2344226837158203,
413,413,1654,2021-10-01 15:13:51.515,-0.2262051900227865,
414,414,1658,2021-10-01 15:13:51.519,-0.2577304840087891,
415,415,1662,2021-10-01 15:13:51.523,-0.208126703898112,
416,416,1666,2021-10-01 15:13:51.527,-0.2475706736246745,
417,417,1670,2021-10-01 15:13:51.531,-0.2274004618326823,
418,418,1674,2021-10-01 15:13:51.535,-0.2197806040445963,
419,419,1678,2021-10-01 15:13:51.539,-0.250708262125651,
420,420,1682,2021-10-01 15:13:51.543,-0.200955073038737,
421,421,1686,2021-10-01 15:13:51.547,-0.2395025889078776,
422,422,1690,2021-10-01 15:13:51.551,-0.2199300130208333,
423,423,1694,2021-10-01 15:13:51.555,-0.2097702026367187,
424,424,1698,2021-10-01 15:13:51.559,-0.243984858194987,
425,425,1702,2021-10-01 15:13:51.563,-0.1972198486328125,
426,426,1706,2021-10-01 15:13:51.567,-0.2445824940999349,
427,427,1710,2021-10-01 15:13:51.571,-0.2276992797851562,
428,428,1714,2021-10-01 15:13:51.575,-0.2179876963297526,
429,429,1718,2021-10-01 15:13:51.579,-0.2498118082682291,
430,430,1722,2021-10-01 15:13:51.583,-0.2017021179199219,
431,431,1726,2021-10-01 15:13:51.587,-0.2403990427652995,
432,432,1730,2021-10-01 15:13:51.591,-0.2185853322347005,
433,433,1734,2021-10-01 15:13:51.595,-0.2036444346110026,
434,434,1738,2021-10-01 15:13:51.599,-0.2347215016682943,
435,435,1742,2021-10-01 15:13:51.603,-0.1876576741536458,
436,436,1746,2021-10-01 15:13:51.607,-0.2263545989990234,
437,437,1750,2021-10-01 15:13:51.611,-0.2052879333496094,
438,438,1754,2021-10-01 15:13:51.615,-0.1943810780843099,
439,439,1758,2021-10-01 15:13:51.619,-0.2284463246663411,
440,440,1762,2021-10-01 15:13:51.623,-0.1803366343180338,
441,441,1766,2021-10-01 15:13:51.627,-0.2181371053059896,
442,442,1770,2021-10-01 15:13:51.631,-0.2008056640625,
443,443,1774,2021-10-01 15:13:51.635,-0.193634033203125,
444,444,1778,2021-10-01 15:13:51.639,-0.2260557810465495,
445,445,1782,2021-10-01 15:13:51.643,-0.1810836791992187,
446,446,1786,2021-10-01 15:13:51.647,-0.222021738688151,
447,447,1790,2021-10-01 15:13:51.651,-0.2061843872070312,
448,448,1794,2021-10-01 15:13:51.655,-0.2018515268961588,
449,449,1798,2021-10-01 15:13:51.659,-0.2381579081217448,
450,450,1802,2021-10-01 15:13:51.663,-0.1943810780843099,
451,451,1806,2021-10-01 15:13:51.667,-0.2384567260742187,
452,452,1810,2021-10-01 15:13:51.671,-0.2256075541178385,
453,453,1814,2021-10-01 15:13:51.675,-0.2157465616861979,
454,454,1818,2021-10-01 15:13:51.679,-0.2456283569335937,
455,455,1822,2021-10-01 15:13:51.683,-0.1985645294189453,
456,456,1826,2021-10-01 15:13:51.687,-0.2415943145751953,
457,457,1830,2021-10-01 15:13:51.691,-0.2263545989990234,
458,458,1834,2021-10-01 15:13:51.695,-0.2196311950683594,
459,459,1838,2021-10-01 15:13:51.699,-0.2527999877929688,
460,460,1842,2021-10-01 15:13:51.703,-0.2033456166585286,
461,461,1846,2021-10-01 15:13:51.707,-0.2429389953613281,
462,462,1850,2021-10-01 15:13:51.711,-0.2254581451416016,
463,463,1854,2021-10-01 15:13:51.715,-0.2175394694010416,
464,464,1858,2021-10-01 15:13:51.719,-0.2483177185058594,
465,465,1862,2021-10-01 15:13:51.723,-0.1988633473714193,
466,466,1866,2021-10-01 15:13:51.727,-0.2387555440266927,
467,467,1870,2021-10-01 15:13:51.731,-0.2230676015218099,
468,468,1874,2021-10-01 15:13:51.735,-0.2155971527099609,
469,469,1878,2021-10-01 15:13:51.739,-0.2478694915771484,
470,470,1882,2021-10-01 15:13:51.743,-0.2037938435872396,
471,471,1886,2021-10-01 15:13:51.747,-0.243536631266276,
472,472,1890,2021-10-01 15:13:51.751,-0.2282969156901041,
473,473,1894,2021-10-01 15:13:51.755,-0.2126089731852213,
474,474,1898,2021-10-01 15:13:51.759,-0.2357673645019531,
475,475,1902,2021-10-01 15:13:51.763,-0.1825777689615885,
476,476,1906,2021-10-01 15:13:51.767,-0.222320556640625,
477,477,1910,2021-10-01 15:13:51.771,-0.2064832051595052,
478,478,1914,2021-10-01 15:13:51.775,-0.1942316691080729,
479,479,1918,2021-10-01 15:13:51.779,-0.2161947886149088,
480,480,1922,2021-10-01 15:13:51.783,-0.1615111033121745,
481,481,1926,2021-10-01 15:13:51.787,-0.2017021179199219,
482,482,1930,2021-10-01 15:13:51.791,-0.1999092102050781,
483,483,1934,2021-10-01 15:13:51.795,-0.2136548360188802,
484,484,1938,2021-10-01 15:13:51.799,-0.2677408854166667,
485,485,1942,2021-10-01 15:13:51.803,-0.2333768208821615,
486,486,1946,2021-10-01 15:13:51.807,-0.2693843841552735,
487,487,1950,2021-10-01 15:13:51.811,-0.24383544921875,
488,488,1954,2021-10-01 15:13:51.815,-0.2271016438802083,
489,489,1958,2021-10-01 15:13:51.819,-0.2493635813395182,
490,490,1962,2021-10-01 15:13:51.823,-0.1948293050130208,
491,491,1966,2021-10-01 15:13:51.827,-0.2336756388346354,
492,492,1970,2021-10-01 15:13:51.831,-0.2169418334960937,
493,493,1974,2021-10-01 15:13:51.835,-0.2057361602783203,
494,494,1978,2021-10-01 15:13:51.839,-0.2387555440266927,
495,495,1982,2021-10-01 15:13:51.843,-0.1898988087972005,
496,496,1986,2021-10-01 15:13:51.847,-0.2278486887613932,
497,497,1990,2021-10-01 15:13:51.851,-0.2094713846842448,
498,498,1994,2021-10-01 15:13:51.855,-0.2193323771158854,
499,499,1998,2021-10-01 15:13:51.859,-0.2853711446126302,
500,500,2002,2021-10-01 15:13:51.863,-0.258626937866211,
501,501,2006,2021-10-01 15:13:51.867,-0.258328119913737,
502,502,2010,2021-10-01 15:13:51.871,-0.0986099243164062,
503,503,2014,2021-10-01 15:13:51.875,0.1459725697835286,
504,504,2018,2021-10-01 15:13:51.879,0.3923479715983073,
505,505,2022,2021-10-01 15:13:51.883,0.6795120239257814,
506,506,2026,2021-10-01 15:13:51.887,0.6548595428466798,
507,507,2030,2021-10-01 15:13:51.891,0.3246657053629557,
508,508,2034,2021-10-01 15:13:51.895,-0.3835328420003255,
509,509,2038,2021-10-01 15:13:51.899,-1.1661370595296223,
510,510,2042,2021-10-01 15:13:51.903,-1.6260178883870444,
511,511,2046,2021-10-01 15:13:51.907,-1.7264207204182944,
512,512,2050,2021-10-01 15:13:51.911,-1.3886070251464846,
513,513,2054,2021-10-01 15:13:51.915,-0.861193339029948,
514,514,2058,2021-10-01 15:13:51.919,-0.387716293334961,
515,515,2062,2021-10-01 15:13:51.923,0.0101598103841145,
516,516,2066,2021-10-01 15:13:51.927,0.1410420735677083,
517,517,2070,2021-10-01 15:13:51.931,0.1960245768229166,
518,518,2074,2021-10-01 15:13:51.935,0.1766014099121094,
519,519,2078,2021-10-01 15:13:51.939,0.0869560241699218,
520,520,2082,2021-10-01 15:13:51.943,0.0766468048095703,
521,521,2086,2021-10-01 15:13:51.947,-0.0135962168375651,
522,522,2090,2021-10-01 15:13:51.951,-0.035409927368164,
523,523,2094,2021-10-01 15:13:51.955,-0.0506496429443359,
524,524,2098,2021-10-01 15:13:51.959,-0.1086203257242838,
525,525,2102,2021-10-01 15:13:51.963,-0.0821749369303385,
526,526,2106,2021-10-01 15:13:51.967,-0.1373068491617838,
527,527,2110,2021-10-01 15:13:51.971,-0.1423867543538411,
528,528,2114,2021-10-01 15:13:51.975,-0.1205730438232422,
529,529,2118,2021-10-01 15:13:51.979,-0.1955763498942057,
530,530,2122,2021-10-01 15:13:51.983,-0.1840718587239583,
531,531,2126,2021-10-01 15:13:51.987,-0.2290439605712891,
532,532,2130,2021-10-01 15:13:51.991,-0.2495129903157552,
533,533,2134,2021-10-01 15:13:51.995,-0.2158959706624349,
534,534,2138,2021-10-01 15:13:51.999,-0.2599716186523438,
535,535,2142,2021-10-01 15:13:52.003,-0.222021738688151,
536,536,2146,2021-10-01 15:13:52.007,-0.2442836761474609,
537,537,2150,2021-10-01 15:13:52.011,-0.2560869852701823,
538,538,2154,2021-10-01 15:13:52.015,-0.2184359232584635,
539,539,2158,2021-10-01 15:13:52.019,-0.265649159749349,
540,540,2162,2021-10-01 15:13:52.023,-0.2276992797851562,
541,541,2166,2021-10-01 15:13:52.027,-0.2466742197672526,
542,542,2170,2021-10-01 15:13:52.031,-0.251305898030599,
543,543,2174,2021-10-01 15:13:52.035,-0.2111148834228516,
544,544,2178,2021-10-01 15:13:52.039,-0.2532482147216797,
545,545,2182,2021-10-01 15:13:52.043,-0.2164936065673828,
546,546,2186,2021-10-01 15:13:52.047,-0.2411460876464844,
547,547,2190,2021-10-01 15:13:52.051,-0.2505588531494141,
548,548,2194,2021-10-01 15:13:52.055,-0.2141030629475911,
549,549,2198,2021-10-01 15:13:52.059,-0.2569834391276042,
550,550,2202,2021-10-01 15:13:52.063,-0.2158959706624349,
551,551,2206,2021-10-01 15:13:52.067,-0.2418931325276693,
552,552,2210,2021-10-01 15:13:52.071,-0.2553399403889974,
553,553,2214,2021-10-01 15:13:52.075,-0.2179876963297526,
554,554,2218,2021-10-01 15:13:52.079,-0.2634080251057943,
555,555,2222,2021-10-01 15:13:52.083,-0.2241134643554687,
556,556,2226,2021-10-01 15:13:52.087,-0.2447319030761719,
557,557,2230,2021-10-01 15:13:52.091,-0.2532482147216797,
558,558,2234,2021-10-01 15:13:52.095,-0.2135054270426432,
559,559,2238,2021-10-01 15:13:52.099,-0.250857671101888,
560,560,2242,2021-10-01 15:13:52.103,-0.2030467987060547,
561,561,2246,2021-10-01 15:13:52.107,-0.2173900604248047,
562,562,2250,2021-10-01 15:13:52.111,-0.2281475067138672,
563,563,2254,2021-10-01 15:13:52.115,-0.200955073038737,
564,564,2258,2021-10-01 15:13:52.119,-0.2551905314127604,
565,565,2262,2021-10-01 15:13:52.123,-0.2184359232584635,
566,566,2266,2021-10-01 15:13:52.127,-0.2359167734781901,
567,567,2270,2021-10-01 15:13:52.131,-0.2399508158365885,
568,568,2274,2021-10-01 15:13:52.135,-0.1964728037516276,
569,569,2278,2021-10-01 15:13:52.139,-0.2348709106445312,
570,570,2282,2021-10-01 15:13:52.143,-0.1915423075358073,
571,571,2286,2021-10-01 15:13:52.147,-0.2193323771158854,
572,572,2290,2021-10-01 15:13:52.151,-0.2383073170979818,
573,573,2294,2021-10-01 15:13:52.155,-0.1999092102050781,
574,574,2298,2021-10-01 15:13:52.159,-0.243536631266276,
575,575,2302,2021-10-01 15:13:52.163,-0.1994609832763672,
576,576,2306,2021-10-01 15:13:52.167,-0.2118619283040365,
577,577,2310,2021-10-01 15:13:52.171,-0.2184359232584635,
578,578,2314,2021-10-01 15:13:52.175,-0.1842212677001953,
579,579,2318,2021-10-01 15:13:52.179,-0.2275498708089193,
580,580,2322,2021-10-01 15:13:52.183,-0.1848189036051432,
581,581,2326,2021-10-01 15:13:52.187,-0.1991621653238932,
582,582,2330,2021-10-01 15:13:52.191,-0.2061843872070312,
583,583,2334,2021-10-01 15:13:52.195,-0.1758543650309245,
584,584,2338,2021-10-01 15:13:52.199,-0.2279980977376302,
585,585,2342,2021-10-01 15:13:52.203,-0.1951281229654948,
586,586,2346,2021-10-01 15:13:52.207,-0.2172406514485677,
587,587,2350,2021-10-01 15:13:52.211,-0.2256075541178385,
588,588,2354,2021-10-01 15:13:52.215,-0.1945304870605469,
589,589,2358,2021-10-01 15:13:52.219,-0.2417437235514323,
590,590,2362,2021-10-01 15:13:52.223,-0.2027479807535807,
591,591,2366,2021-10-01 15:13:52.227,-0.2244122823079427,
592,592,2370,2021-10-01 15:13:52.231,-0.2345720926920573,
593,593,2374,2021-10-01 15:13:52.235,-0.1958751678466797,
594,594,2378,2021-10-01 15:13:52.239,-0.2377096811930338,
595,595,2382,2021-10-01 15:13:52.243,-0.2091725667317708,
596,596,2386,2021-10-01 15:13:52.247,-0.2389049530029297,
597,597,2390,2021-10-01 15:13:52.251,-0.251305898030599,
598,598,2394,2021-10-01 15:13:52.255,-0.2142524719238281,
599,599,2398,2021-10-01 15:13:52.259,-0.2520529429117839,
600,600,2402,2021-10-01 15:13:52.263,-0.2085749308268229,
601,601,2406,2021-10-01 15:13:52.267,-0.2285957336425781,
602,602,2410,2021-10-01 15:13:52.271,-0.2466742197672526,
603,603,2414,2021-10-01 15:13:52.275,-0.2142524719238281,
604,604,2418,2021-10-01 15:13:52.279,-0.2523517608642578,
605,605,2422,2021-10-01 15:13:52.283,-0.2066326141357422,
606,606,2426,2021-10-01 15:13:52.287,-0.2308368682861328,
607,607,2430,2021-10-01 15:13:52.291,-0.2339744567871094,
608,608,2434,2021-10-01 15:13:52.295,-0.1966222127278646,
609,609,2438,2021-10-01 15:13:52.299,-0.2468236287434896,
610,610,2442,2021-10-01 15:13:52.303,-0.2099196116129557,
611,611,2446,2021-10-01 15:13:52.307,-0.2315839131673177,
612,612,2450,2021-10-01 15:13:52.311,-0.2360661824544271,
613,613,2454,2021-10-01 15:13:52.315,-0.1973692576090495,
614,614,2458,2021-10-01 15:13:52.319,-0.2395025889078776,
615,615,2462,2021-10-01 15:13:52.323,-0.1952775319417318,
616,616,2466,2021-10-01 15:13:52.327,-0.2060349782307943,
617,617,2470,2021-10-01 15:13:52.331,-0.2031962076822916,
618,618,2474,2021-10-01 15:13:52.335,-0.1612122853597005,
619,619,2478,2021-10-01 15:13:52.339,-0.2142524719238281,
620,620,2482,2021-10-01 15:13:52.343,-0.1943810780843099,
621,621,2486,2021-10-01 15:13:52.347,-0.2330780029296875,
622,622,2490,2021-10-01 15:13:52.351,-0.2487659454345703,
623,623,2494,2021-10-01 15:13:52.355,-0.2181371053059896,
624,624,2498,2021-10-01 15:13:52.359,-0.2575810750325521,
625,625,2502,2021-10-01 15:13:52.363,-0.2196311950683594,
626,626,2506,2021-10-01 15:13:52.367,-0.2523517608642578,
627,627,2510,2021-10-01 15:13:52.371,-0.2599716186523438,
628,628,2514,2021-10-01 15:13:52.375,-0.2072302500406901,
629,629,2518,2021-10-01 15:13:52.379,-0.2324803670247396,
630,630,2522,2021-10-01 15:13:52.383,-0.186611811319987,
631,631,2526,2021-10-01 15:13:52.387,-0.2170912424723307,
632,632,2530,2021-10-01 15:13:52.391,-0.2288945515950521,
633,633,2534,2021-10-01 15:13:52.395,-0.1909446716308594,
634,634,2538,2021-10-01 15:13:52.399,-0.2303886413574219,
635,635,2542,2021-10-01 15:13:52.403,-0.1893011728922526,
636,636,2546,2021-10-01 15:13:52.407,-0.2371120452880859,
637,637,2550,2021-10-01 15:13:52.411,-0.286566416422526,
638,638,2554,2021-10-01 15:13:52.415,-0.257879892985026,
639,639,2558,2021-10-01 15:13:52.419,-0.2329285939534505,
640,640,2562,2021-10-01 15:13:52.423,-0.0256983439127604,
641,641,2566,2021-10-01 15:13:52.427,0.2018515268961588,
642,642,2570,2021-10-01 15:13:52.431,0.473775863647461,
643,643,2574,2021-10-01 15:13:52.435,0.7213465372721355,
644,644,2578,2021-10-01 15:13:52.439,0.6185531616210939,
645,645,2582,2021-10-01 15:13:52.443,0.1869106292724609,
646,646,2586,2021-10-01 15:13:52.447,-0.667260487874349,
647,647,2590,2021-10-01 15:13:52.451,-1.4606221516927085,
648,648,2594,2021-10-01 15:13:52.455,-1.8634287516276045,
649,649,2598,2021-10-01 15:13:52.459,-1.81023915608724,
650,650,2602,2021-10-01 15:13:52.463,-1.284020741780599,
651,651,2606,2021-10-01 15:13:52.467,-0.653066635131836,
652,652,2610,2021-10-01 15:13:52.471,-0.1180330912272135,
653,653,2614,2021-10-01 15:13:52.475,0.2287451426188151,
654,654,2618,2021-10-01 15:13:52.479,0.2841758728027344,
655,655,2622,2021-10-01 15:13:52.483,0.3030014038085938,
656,656,2626,2021-10-01 15:13:52.487,0.215447743733724,
657,657,2630,2021-10-01 15:13:52.491,0.1269976298014323,
658,658,2634,2021-10-01 15:13:52.495,0.0911394755045573,
659,659,2638,2021-10-01 15:13:52.499,-0.0191243489583333,
660,660,2642,2021-10-01 15:13:52.503,-0.0309276580810546,
661,661,2646,2021-10-01 15:13:52.507,-0.0905418395996093,
662,662,2650,2021-10-01 15:13:52.511,-0.1323763529459635,
663,663,2654,2021-10-01 15:13:52.515,-0.1244576772054036,
664,664,2658,2021-10-01 15:13:52.519,-0.1982657114664713,
665,665,2662,2021-10-01 15:13:52.523,-0.179141362508138,
666,666,2666,2021-10-01 15:13:52.527,-0.2133560180664062,
667,667,2670,2021-10-01 15:13:52.531,-0.2360661824544271,
668,668,2674,2021-10-01 15:13:52.535,-0.2064832051595052,
669,669,2678,2021-10-01 15:13:52.539,-0.2587763468424479,
670,670,2682,2021-10-01 15:13:52.543,-0.2179876963297526,
671,671,2686,2021-10-01 15:13:52.547,-0.2405484517415365,
672,672,2690,2021-10-01 15:13:52.551,-0.2536964416503907,
673,673,2694,2021-10-01 15:13:52.555,-0.2209758758544922,
674,674,2698,2021-10-01 15:13:52.559,-0.2693843841552735,
675,675,2702,2021-10-01 15:13:52.563,-0.2323309580485026,
676,676,2706,2021-10-01 15:13:52.567,-0.2541446685791016,
677,677,2710,2021-10-01 15:13:52.571,-0.258328119913737,
678,678,2714,2021-10-01 15:13:52.575,-0.2163441975911458,
679,679,2718,2021-10-01 15:13:52.579,-0.2571328481038412,
680,680,2722,2021-10-01 15:13:52.583,-0.2157465616861979,
681,681,2726,2021-10-01 15:13:52.587,-0.2344226837158203,
682,682,2730,2021-10-01 15:13:52.591,-0.2472718556722005,
683,683,2734,2021-10-01 15:13:52.595,-0.2136548360188802,
684,684,2738,2021-10-01 15:13:52.599,-0.2604198455810547,
685,685,2742,2021-10-01 15:13:52.603,-0.2227687835693359,
686,686,2746,2021-10-01 15:13:52.607,-0.2415943145751953,
687,687,2750,2021-10-01 15:13:52.611,-0.2487659454345703,
688,688,2754,2021-10-01 15:13:52.615,-0.2103678385416666,
689,689,2758,2021-10-01 15:13:52.619,-0.2545928955078125,
690,690,2762,2021-10-01 15:13:52.623,-0.2176888783772786,
691,691,2766,2021-10-01 15:13:52.627,-0.2427895863850911,
692,692,2770,2021-10-01 15:13:52.631,-0.2522023518880208,
693,693,2774,2021-10-01 15:13:52.635,-0.215447743733724,
694,694,2778,2021-10-01 15:13:52.639,-0.2587763468424479,
695,695,2782,2021-10-01 15:13:52.643,-0.2135054270426432,
696,696,2786,2021-10-01 15:13:52.647,-0.2318827311197916,
697,697,2790,2021-10-01 15:13:52.651,-0.2360661824544271,
698,698,2794,2021-10-01 15:13:52.655,-0.2014032999674479,
699,699,2798,2021-10-01 15:13:52.659,-0.2477200826009115,
700,700,2802,2021-10-01 15:13:52.663,-0.2112642923990885,
701,701,2806,2021-10-01 15:13:52.667,-0.2377096811930338,
702,702,2810,2021-10-01 15:13:52.671,-0.243536631266276,
703,703,2814,2021-10-01 15:13:52.675,-0.2049891153971354,
704,704,2818,2021-10-01 15:13:52.679,-0.2504094441731771,
705,705,2822,2021-10-01 15:13:52.683,-0.2120113372802734,
706,706,2826,2021-10-01 15:13:52.687,-0.229641596476237,
707,707,2830,2021-10-01 15:13:52.691,-0.2332274119059245,
708,708,2834,2021-10-01 15:13:52.695,-0.1940822601318359,
709,709,2838,2021-10-01 15:13:52.699,-0.2357673645019531,
710,710,2842,2021-10-01 15:13:52.703,-0.1924387613932291,
711,711,2846,2021-10-01 15:13:52.707,-0.2127583821614583,
712,712,2850,2021-10-01 15:13:52.711,-0.2203782399495443,
713,713,2854,2021-10-01 15:13:52.715,-0.1851177215576172,
714,714,2858,2021-10-01 15:13:52.719,-0.2323309580485026,
715,715,2862,2021-10-01 15:13:52.723,-0.193484624226888,
716,716,2866,2021-10-01 15:13:52.727,-0.2132066090901693,
717,717,2870,2021-10-01 15:13:52.731,-0.2139536539713541,
718,718,2874,2021-10-01 15:13:52.735,-0.1736132303873698,
719,719,2878,2021-10-01 15:13:52.739,-0.2190335591634115,
720,720,2882,2021-10-01 15:13:52.743,-0.1813824971516927,
721,721,2886,2021-10-01 15:13:52.747,-0.2073796590169271,
722,722,2890,2021-10-01 15:13:52.751,-0.2239640553792318,
723,723,2894,2021-10-01 15:13:52.755,-0.1904964447021484,
724,724,2898,2021-10-01 15:13:52.759,-0.2341238657633463,
725,725,2902,2021-10-01 15:13:52.763,-0.1945304870605469,
726,726,2906,2021-10-01 15:13:52.767,-0.2197806040445963,
727,727,2910,2021-10-01 15:13:52.771,-0.2342732747395833,
728,728,2914,2021-10-01 15:13:52.775,-0.2021503448486328,
729,729,2918,2021-10-01 15:13:52.779,-0.2478694915771484,
730,730,2922,2021-10-01 15:13:52.783,-0.207827885945638,
731,731,2926,2021-10-01 15:13:52.787,-0.229193369547526,
732,732,2930,2021-10-01 15:13:52.791,-0.2380084991455078,
733,733,2934,2021-10-01 15:13:52.795,-0.2064832051595052,
734,734,2938,2021-10-01 15:13:52.799,-0.251007080078125,
735,735,2942,2021-10-01 15:13:52.803,-0.2075290679931641,
736,736,2946,2021-10-01 15:13:52.807,-0.2274004618326823,
737,737,2950,2021-10-01 15:13:52.811,-0.2453295389811198,
738,738,2954,2021-10-01 15:13:52.815,-0.2097702026367187,
739,739,2958,2021-10-01 15:13:52.819,-0.2550411224365235,
740,740,2962,2021-10-01 15:13:52.823,-0.2127583821614583,
741,741,2966,2021-10-01 15:13:52.827,-0.229791005452474,
742,742,2970,2021-10-01 15:13:52.831,-0.2405484517415365,
743,743,2974,2021-10-01 15:13:52.835,-0.2046902974446615,
744,744,2978,2021-10-01 15:13:52.839,-0.251455307006836,
745,745,2982,2021-10-01 15:13:52.843,-0.2108160654703776,
746,746,2986,2021-10-01 15:13:52.847,-0.2309862772623698,
747,747,2990,2021-10-01 15:13:52.851,-0.244134267171224,
748,748,2994,2021-10-01 15:13:52.855,-0.2067820231119791,
749,749,2998,2021-10-01 15:13:52.859,-0.2480189005533854,
750,750,3002,2021-10-01 15:13:52.863,-0.1984151204427083,
751,751,3006,2021-10-01 15:13:52.867,-0.2208264668782552,
752,752,3010,2021-10-01 15:13:52.871,-0.2311356862386068,
753,753,3014,2021-10-01 15:13:52.875,-0.1885541280110677,
754,754,3018,2021-10-01 15:13:52.879,-0.2227687835693359,
755,755,3022,2021-10-01 15:13:52.883,-0.1712226867675781,
756,756,3026,2021-10-01 15:13:52.887,-0.1845200856526692,
757,757,3030,2021-10-01 15:13:52.891,-0.1973692576090495,
758,758,3034,2021-10-01 15:13:52.895,-0.1807848612467448,
759,759,3038,2021-10-01 15:13:52.899,-0.2505588531494141,
760,760,3042,2021-10-01 15:13:52.903,-0.2324803670247396,
761,761,3046,2021-10-01 15:13:52.907,-0.2622127532958985,
762,762,3050,2021-10-01 15:13:52.911,-0.2620633443196615,
763,763,3054,2021-10-01 15:13:52.915,-0.2238146464029948,
764,764,3058,2021-10-01 15:13:52.919,-0.2608680725097657,
765,765,3062,2021-10-01 15:13:52.923,-0.2099196116129557,
766,766,3066,2021-10-01 15:13:52.927,-0.2263545989990234,
767,767,3070,2021-10-01 15:13:52.931,-0.2318827311197916,
768,768,3074,2021-10-01 15:13:52.935,-0.1910940806070963,
769,769,3078,2021-10-01 15:13:52.939,-0.2378590901692708,
770,770,3082,2021-10-01 15:13:52.943,-0.1973692576090495,
771,771,3086,2021-10-01 15:13:52.947,-0.2176888783772786,
772,772,3090,2021-10-01 15:13:52.951,-0.2321815490722656,
773,773,3094,2021-10-01 15:13:52.955,-0.2064832051595052,
774,774,3098,2021-10-01 15:13:52.959,-0.2859687805175782,
775,775,3102,2021-10-01 15:13:52.963,-0.2746136983235677,
776,776,3106,2021-10-01 15:13:52.967,-0.2683385213216146,
777,777,3110,2021-10-01 15:13:52.971,-0.1556841532389323,
778,778,3114,2021-10-01 15:13:52.975,0.1302846272786458,
779,779,3118,2021-10-01 15:13:52.979,0.3848775227864583,
780,780,3122,2021-10-01 15:13:52.983,0.7111867268880209,
781,781,3126,2021-10-01 15:13:52.987,0.8269786834716798,
782,782,3130,2021-10-01 15:13:52.991,0.5378723144531251,
783,783,3134,2021-10-01 15:13:52.995,-0.1316293080647786,
784,784,3138,2021-10-01 15:13:52.999,-1.032416025797526,
785,785,3142,2021-10-01 15:13:53.003,-1.657991409301758,
786,786,3146,2021-10-01 15:13:53.007,-1.839523315429688,
787,787,3150,2021-10-01 15:13:53.011,-1.6119734446207683,
788,788,3154,2021-10-01 15:13:53.015,-1.0823186238606772,
789,789,3158,2021-10-01 15:13:53.019,-0.5964406331380209,
790,790,3162,2021-10-01 15:13:53.023,-0.1728661855061849,
791,791,3166,2021-10-01 15:13:53.027,0.0799338022867838,
792,792,3170,2021-10-01 15:13:53.031,0.1408926645914713,
793,793,3174,2021-10-01 15:13:53.035,0.1878070831298828,
794,794,3178,2021-10-01 15:13:53.039,0.114447275797526,
795,795,3182,2021-10-01 15:13:53.043,0.093231201171875,
796,796,3186,2021-10-01 15:13:53.047,0.0727621714274088,
797,797,3190,2021-10-01 15:13:53.051,0.0171820322672526,
798,798,3194,2021-10-01 15:13:53.055,0.0348122914632161,
799,799,3198,2021-10-01 15:13:53.059,-0.0413862864176432,
800,800,3202,2021-10-01 15:13:53.063,-0.0600624084472656,
801,801,3206,2021-10-01 15:13:53.067,-0.0827725728352864,
802,802,3210,2021-10-01 15:13:53.071,-0.1368586222330729,
803,803,3214,2021-10-01 15:13:53.075,-0.1187801361083984,
804,804,3218,2021-10-01 15:13:53.079,-0.1915423075358073,
805,805,3222,2021-10-01 15:13:53.083,-0.1885541280110677,
806,806,3226,2021-10-01 15:13:53.087,-0.193634033203125,
807,807,3230,2021-10-01 15:13:53.091,-0.2399508158365885,
808,808,3234,2021-10-01 15:13:53.095,-0.2066326141357422,
809,809,3238,2021-10-01 15:13:53.099,-0.2554893493652344,
810,810,3242,2021-10-01 15:13:53.103,-0.2353191375732422,
811,811,3246,2021-10-01 15:13:53.107,-0.2235158284505208,
812,812,3250,2021-10-01 15:13:53.111,-0.2632586161295573,
813,813,3254,2021-10-01 15:13:53.115,-0.2257569630940755,
814,814,3258,2021-10-01 15:13:53.119,-0.2711772918701172,
815,815,3262,2021-10-01 15:13:53.123,-0.2478694915771484,
816,816,3266,2021-10-01 15:13:53.127,-0.2302392323811849,
817,817,3270,2021-10-01 15:13:53.131,-0.2547423044840495,
818,818,3274,2021-10-01 15:13:53.135,-0.2049891153971354,
819,819,3278,2021-10-01 15:13:53.139,-0.2489153544108073,
820,820,3282,2021-10-01 15:13:53.143,-0.2341238657633463,
821,821,3286,2021-10-01 15:13:53.147,-0.2315839131673177,
822,822,3290,2021-10-01 15:13:53.151,-0.2666950225830078,
823,823,3294,2021-10-01 15:13:53.155,-0.2157465616861979,
824,824,3298,2021-10-01 15:13:53.159,-0.2544434865315755,
825,825,3302,2021-10-01 15:13:53.163,-0.2389049530029297,
826,826,3306,2021-10-01 15:13:53.167,-0.2324803670247396,
827,827,3310,2021-10-01 15:13:53.171,-0.2629597981770833,
828,828,3314,2021-10-01 15:13:53.175,-0.2208264668782552,
829,829,3318,2021-10-01 15:13:53.179,-0.2620633443196615,
830,830,3322,2021-10-01 15:13:53.183,-0.2333768208821615,
831,831,3326,2021-10-01 15:13:53.187,-0.2230676015218099,
832,832,3330,2021-10-01 15:13:53.191,-0.250708262125651,
833,833,3334,2021-10-01 15:13:53.195,-0.2024491628011068,
834,834,3338,2021-10-01 15:13:53.199,-0.2423413594563802,
835,835,3342,2021-10-01 15:13:53.203,-0.2241134643554687,
836,836,3346,2021-10-01 15:13:53.207,-0.2175394694010416,
837,837,3350,2021-10-01 15:13:53.211,-0.2462259928385416,
838,838,3354,2021-10-01 15:13:53.215,-0.2002080281575521,
839,839,3358,2021-10-01 15:13:53.219,-0.2420425415039062,
840,840,3362,2021-10-01 15:13:53.223,-0.2259063720703125,
841,841,3366,2021-10-01 15:13:53.227,-0.2203782399495443,
842,842,3370,2021-10-01 15:13:53.231,-0.2517541249593099,
843,843,3374,2021-10-01 15:13:53.235,-0.1988633473714193,
844,844,3378,2021-10-01 15:13:53.239,-0.2362155914306641,
845,845,3382,2021-10-01 15:13:53.243,-0.2118619283040365,
846,846,3386,2021-10-01 15:13:53.247,-0.2020009358723958,
847,847,3390,2021-10-01 15:13:53.251,-0.2332274119059245,
848,848,3394,2021-10-01 15:13:53.255,-0.1827271779378255,
849,849,3398,2021-10-01 15:13:53.259,-0.2218723297119141,
850,850,3402,2021-10-01 15:13:53.263,-0.1988633473714193,
851,851,3406,2021-10-01 15:13:53.267,-0.1958751678466797,
852,852,3410,2021-10-01 15:13:53.271,-0.2314345041910807,
853,853,3414,2021-10-01 15:13:53.275,-0.1807848612467448,
854,854,3418,2021-10-01 15:13:53.279,-0.214999516805013,
855,855,3422,2021-10-01 15:13:53.283,-0.1957257588704427,
856,856,3426,2021-10-01 15:13:53.287,-0.1912434895833333,
857,857,3430,2021-10-01 15:13:53.291,-0.2272510528564453,
858,858,3434,2021-10-01 15:13:53.295,-0.179290771484375,
859,859,3438,2021-10-01 15:13:53.299,-0.2257569630940755,
860,860,3442,2021-10-01 15:13:53.303,-0.2111148834228516,
861,861,3446,2021-10-01 15:13:53.307,-0.1990127563476562,
862,862,3450,2021-10-01 15:13:53.311,-0.2348709106445312,
863,863,3454,2021-10-01 15:13:53.315,-0.1921399434407552,
864,864,3458,2021-10-01 15:13:53.319,-0.2345720926920573,
865,865,3462,2021-10-01 15:13:53.323,-0.222619374593099,
866,866,3466,2021-10-01 15:13:53.327,-0.2167924245198568,
867,867,3470,2021-10-01 15:13:53.331,-0.2474212646484375,
868,868,3474,2021-10-01 15:13:53.335,-0.2002080281575521,
869,869,3478,2021-10-01 15:13:53.339,-0.2401002248128255,
870,870,3482,2021-10-01 15:13:53.343,-0.222021738688151,
871,871,3486,2021-10-01 15:13:53.347,-0.2124595642089844,
872,872,3490,2021-10-01 15:13:53.351,-0.2471224466959635,
873,873,3494,2021-10-01 15:13:53.355,-0.1970704396565755,
874,874,3498,2021-10-01 15:13:53.359,-0.2380084991455078,
875,875,3502,2021-10-01 15:13:53.363,-0.2259063720703125,
876,876,3506,2021-10-01 15:13:53.367,-0.2194817860921224,
877,877,3510,2021-10-01 15:13:53.371,-0.2529493967692057,
878,878,3514,2021-10-01 15:13:53.375,-0.2040926615397135,
879,879,3518,2021-10-01 15:13:53.379,-0.2445824940999349,
880,880,3522,2021-10-01 15:13:53.383,-0.2294921875,
881,881,3526,2021-10-01 15:13:53.387,-0.222469965616862,
882,882,3530,2021-10-01 15:13:53.391,-0.257879892985026,
883,883,3534,2021-10-01 15:13:53.395,-0.2017021179199219,
884,884,3538,2021-10-01 15:13:53.399,-0.2344226837158203,
885,885,3542,2021-10-01 15:13:53.403,-0.2193323771158854,
886,886,3546,2021-10-01 15:13:53.407,-0.2163441975911458,
887,887,3550,2021-10-01 15:13:53.411,-0.2530988057454427,
888,888,3554,2021-10-01 15:13:53.415,-0.2057361602783203,
889,889,3558,2021-10-01 15:13:53.419,-0.2445824940999349,
890,890,3562,2021-10-01 15:13:53.423,-0.2200794219970703,
891,891,3566,2021-10-01 15:13:53.427,-0.208126703898112,
892,892,3570,2021-10-01 15:13:53.431,-0.2386061350504557,
893,893,3574,2021-10-01 15:13:53.435,-0.1825777689615885,
894,894,3578,2021-10-01 15:13:53.439,-0.2087243398030599,
895,895,3582,2021-10-01 15:13:53.443,-0.1839224497477213,
896,896,3586,2021-10-01 15:13:53.447,-0.1703262329101562,
897,897,3590,2021-10-01 15:13:53.451,-0.2049891153971354,
898,898,3594,2021-10-01 15:13:53.455,-0.1748085021972656,
899,899,3598,2021-10-01 15:13:53.459,-0.2386061350504557,
900,900,3602,2021-10-01 15:13:53.463,-0.2399508158365885,
901,901,3606,2021-10-01 15:13:53.467,-0.244134267171224,
902,902,3610,2021-10-01 15:13:53.471,-0.2771536509195964,
903,903,3614,2021-10-01 15:13:53.475,-0.2230676015218099,
904,904,3618,2021-10-01 15:13:53.479,-0.2526505788167318,
905,905,3622,2021-10-01 15:13:53.483,-0.2247111002604166,
906,906,3626,2021-10-01 15:13:53.487,-0.207827885945638,
907,907,3630,2021-10-01 15:13:53.491,-0.2417437235514323,
908,908,3634,2021-10-01 15:13:53.495,-0.1952775319417318,
909,909,3638,2021-10-01 15:13:53.499,-0.2309862772623698,
910,910,3642,2021-10-01 15:13:53.503,-0.2054373423258463,
911,911,3646,2021-10-01 15:13:53.507,-0.1954269409179687,
912,912,3650,2021-10-01 15:13:53.511,-0.2339744567871094,
913,913,3654,2021-10-01 15:13:53.515,-0.2045408884684245,
914,914,3658,2021-10-01 15:13:53.519,-0.2704302469889323,
915,915,3662,2021-10-01 15:13:53.523,-0.2807394663492839,
916,916,3666,2021-10-01 15:13:53.527,-0.2807394663492839,
917,917,3670,2021-10-01 15:13:53.531,-0.2420425415039062,
918,918,3674,2021-10-01 15:13:53.535,-0.0098609924316406,
919,919,3678,2021-10-01 15:13:53.539,0.2320321400960286,
920,920,3682,2021-10-01 15:13:53.543,0.5696964263916017,
921,921,3686,2021-10-01 15:13:53.547,0.8093484242757163,
922,922,3690,2021-10-01 15:13:53.551,0.6947517395019532,
923,923,3694,2021-10-01 15:13:53.555,0.2215735117594401,
924,924,3698,2021-10-01 15:13:53.559,-0.6723403930664064,
925,925,3702,2021-10-01 15:13:53.563,-1.434923807779948,
926,926,3706,2021-10-01 15:13:53.567,-1.8287658691406248,
927,927,3710,2021-10-01 15:13:53.571,-1.778863271077474,
928,928,3714,2021-10-01 15:13:53.575,-1.2962722778320317,
929,929,3718,2021-10-01 15:13:53.579,-0.7693068186442058,
930,930,3722,2021-10-01 15:13:53.583,-0.2631092071533203,
931,931,3726,2021-10-01 15:13:53.587,0.0575224558512369,
932,932,3730,2021-10-01 15:13:53.591,0.1561323801676432,
933,933,3734,2021-10-01 15:13:53.595,0.2124595642089844,
934,934,3738,2021-10-01 15:13:53.599,0.1377550760904948,
935,935,3742,2021-10-01 15:13:53.603,0.1131025950113932,
936,936,3746,2021-10-01 15:13:53.607,0.0884501139322916,
937,937,3750,2021-10-01 15:13:53.611,0.0264453887939453,
938,938,3754,2021-10-01 15:13:53.615,0.0339158376057942,
939,939,3758,2021-10-01 15:13:53.619,-0.0446732838948567,
940,940,3762,2021-10-01 15:13:53.623,-0.0611082712809244,
941,941,3766,2021-10-01 15:13:53.627,-0.0845654805501302,
942,942,3770,2021-10-01 15:13:53.631,-0.1500066121419271,
943,943,3774,2021-10-01 15:13:53.635,-0.1314798990885416,
944,944,3778,2021-10-01 15:13:53.639,-0.1895999908447266,
945,945,3782,2021-10-01 15:13:53.643,-0.1919905344645182,
946,946,3786,2021-10-01 15:13:53.647,-0.1979668935139974,
947,947,3790,2021-10-01 15:13:53.651,-0.2383073170979818,
948,948,3794,2021-10-01 15:13:53.655,-0.2049891153971354,
949,949,3798,2021-10-01 15:13:53.659,-0.2559375762939453,
950,950,3802,2021-10-01 15:13:53.663,-0.2399508158365885,
951,951,3806,2021-10-01 15:13:53.667,-0.2250099182128906,
952,952,3810,2021-10-01 15:13:53.671,-0.2557881673177083,
953,953,3814,2021-10-01 15:13:53.675,-0.2115631103515625,
954,954,3818,2021-10-01 15:13:53.679,-0.2569834391276042,
955,955,3822,2021-10-01 15:13:53.683,-0.2338250478108724,
956,956,3826,2021-10-01 15:13:53.687,-0.2233664194742838,
957,957,3830,2021-10-01 15:13:53.691,-0.2560869852701823,
958,958,3834,2021-10-01 15:13:53.695,-0.2157465616861979,
959,959,3838,2021-10-01 15:13:53.699,-0.2593739827473958,
960,960,3842,2021-10-01 15:13:53.703,-0.2454789479573568,
961,961,3846,2021-10-01 15:13:53.707,-0.2387555440266927,
962,962,3850,2021-10-01 15:13:53.711,-0.2634080251057943,
963,963,3854,2021-10-01 15:13:53.715,-0.2048397064208984,
964,964,3858,2021-10-01 15:13:53.719,-0.2384567260742187,
965,965,3862,2021-10-01 15:13:53.723,-0.222320556640625,
966,966,3866,2021-10-01 15:13:53.727,-0.2256075541178385,
967,967,3870,2021-10-01 15:13:53.731,-0.2668444315592448,
968,968,3874,2021-10-01 15:13:53.735,-0.2214241027832031,
969,969,3878,2021-10-01 15:13:53.739,-0.2550411224365235,
970,970,3882,2021-10-01 15:13:53.743,-0.2284463246663411,
971,971,3886,2021-10-01 15:13:53.747,-0.2161947886149088,
972,972,3890,2021-10-01 15:13:53.751,-0.2542940775553385,
973,973,3894,2021-10-01 15:13:53.755,-0.2160453796386719,
974,974,3898,2021-10-01 15:13:53.759,-0.2601210276285807,
975,975,3902,2021-10-01 15:13:53.763,-0.2412954966227213,
976,976,3906,2021-10-01 15:13:53.767,-0.2276992797851562,
977,977,3910,2021-10-01 15:13:53.771,-0.2447319030761719,
978,978,3914,2021-10-01 15:13:53.775,-0.1987139383951823,
979,979,3918,2021-10-01 15:13:53.779,-0.2480189005533854,
980,980,3922,2021-10-01 15:13:53.783,-0.236365000406901,
981,981,3926,2021-10-01 15:13:53.787,-0.2288945515950521,
982,982,3930,2021-10-01 15:13:53.791,-0.2608680725097657,
983,983,3934,2021-10-01 15:13:53.795,-0.2142524719238281,
984,984,3938,2021-10-01 15:13:53.799,-0.2445824940999349,
985,985,3942,2021-10-01 15:13:53.803,-0.2187347412109375,
986,986,3946,2021-10-01 15:13:53.807,-0.2030467987060547,
987,987,3950,2021-10-01 15:13:53.811,-0.2305380503336588,
988,988,3954,2021-10-01 15:13:53.815,-0.1885541280110677,
989,989,3958,2021-10-01 15:13:53.819,-0.2318827311197916,
990,990,3962,2021-10-01 15:13:53.823,-0.2136548360188802,
991,991,3966,2021-10-01 15:13:53.827,-0.1921399434407552,
992,992,3970,2021-10-01 15:13:53.831,-0.2135054270426432,
993,993,3974,2021-10-01 15:13:53.835,-0.164947509765625,
994,994,3978,2021-10-01 15:13:53.839,-0.2030467987060547,
995,995,3982,2021-10-01 15:13:53.843,-0.1921399434407552,
996,996,3986,2021-10-01 15:13:53.847,-0.1949787139892578,
997,997,3990,2021-10-01 15:13:53.851,-0.229342778523763,
998,998,3994,2021-10-01 15:13:53.855,-0.1771990458170573,
999,999,3998,2021-10-01 15:13:53.859,-0.2185853322347005,
1000,1000,4002,2021-10-01 15:13:53.863,-0.2120113372802734,
1001,1001,4006,2021-10-01 15:13:53.867,-0.2020009358723958,
1002,1002,4010,2021-10-01 15:13:53.871,-0.2384567260742187,
1003,1003,4014,2021-10-01 15:13:53.875,-0.1927375793457031,
1004,1004,4018,2021-10-01 15:13:53.879,-0.2274004618326823,
1005,1005,4022,2021-10-01 15:13:53.883,-0.2042420705159505,
1006,1006,4026,2021-10-01 15:13:53.887,-0.1958751678466797,
1007,1007,4030,2021-10-01 15:13:53.891,-0.2344226837158203,
1008,1008,4034,2021-10-01 15:13:53.895,-0.1940822601318359,
1009,1009,4038,2021-10-01 15:13:53.899,-0.2387555440266927,
1010,1010,4042,2021-10-01 15:13:53.903,-0.2199300130208333,
1011,1011,4046,2021-10-01 15:13:53.907,-0.207678476969401,
1012,1012,4050,2021-10-01 15:13:53.911,-0.2489153544108073,
1013,1013,4054,2021-10-01 15:13:53.915,-0.1999092102050781,
1014,1014,4058,2021-10-01 15:13:53.919,-0.2324803670247396,
1015,1015,4062,2021-10-01 15:13:53.923,-0.2306874593098958,
1016,1016,4066,2021-10-01 15:13:53.927,-0.2303886413574219,
1017,1017,4070,2021-10-01 15:13:53.931,-0.2687867482503255,
1018,1018,4074,2021-10-01 15:13:53.935,-0.2217229207356771,
1019,1019,4078,2021-10-01 15:13:53.939,-0.2568340301513672,
1020,1020,4082,2021-10-01 15:13:53.943,-0.2229181925455729,
1021,1021,4086,2021-10-01 15:13:53.947,-0.2036444346110026,
1022,1022,4090,2021-10-01 15:13:53.951,-0.244134267171224,
1023,1023,4094,2021-10-01 15:13:53.955,-0.1942316691080729,
1024,1024,4098,2021-10-01 15:13:53.959,-0.2338250478108724,
1025,1025,4102,2021-10-01 15:13:53.963,-0.2179876963297526,
1026,1026,4106,2021-10-01 15:13:53.967,-0.2060349782307943,
1027,1027,4110,2021-10-01 15:13:53.971,-0.2447319030761719,
1028,1028,4114,2021-10-01 15:13:53.975,-0.2000586191813151,
1029,1029,4118,2021-10-01 15:13:53.979,-0.2268028259277344,
1030,1030,4122,2021-10-01 15:13:53.983,-0.243686040242513,
1031,1031,4126,2021-10-01 15:13:53.987,-0.1957257588704427,
1032,1032,4130,2021-10-01 15:13:53.991,-0.2354685465494791,
1033,1033,4134,2021-10-01 15:13:53.995,-0.2108160654703776,
1034,1034,4138,2021-10-01 15:13:53.999,-0.2333768208821615,
1035,1035,4142,2021-10-01 15:13:54.003,-0.236962636311849,
1036,1036,4146,2021-10-01 15:13:54.007,-0.1979668935139974,
1037,1037,4150,2021-10-01 15:13:54.011,-0.2408472696940104,
1038,1038,4154,2021-10-01 15:13:54.015,-0.2052879333496094,
1039,1039,4158,2021-10-01 15:13:54.019,-0.2287451426188151,
1040,1040,4162,2021-10-01 15:13:54.023,-0.2317333221435547,
1041,1041,4166,2021-10-01 15:13:54.027,-0.1922893524169922,
1042,1042,4170,2021-10-01 15:13:54.031,-0.2387555440266927,
1043,1043,4174,2021-10-01 15:13:54.035,-0.1964728037516276,
1044,1044,4178,2021-10-01 15:13:54.039,-0.214850107828776,
1045,1045,4182,2021-10-01 15:13:54.043,-0.2288945515950521,
1046,1046,4186,2021-10-01 15:13:54.047,-0.1946798960367838,
1047,1047,4190,2021-10-01 15:13:54.051,-0.2450307210286458,
1048,1048,4194,2021-10-01 15:13:54.055,-0.2088737487792969,
1049,1049,4198,2021-10-01 15:13:54.059,-0.2239640553792318,
1050,1050,4202,2021-10-01 15:13:54.063,-0.2271016438802083,
1051,1051,4206,2021-10-01 15:13:54.067,-0.1873588562011719,
1052,1052,4210,2021-10-01 15:13:54.071,-0.2348709106445312,
1053,1053,4214,2021-10-01 15:13:54.075,-0.2073796590169271,
1054,1054,4218,2021-10-01 15:13:54.079,-0.236663818359375,
1055,1055,4222,2021-10-01 15:13:54.083,-0.2454789479573568,
1056,1056,4226,2021-10-01 15:13:54.087,-0.1997598012288411,
1057,1057,4230,2021-10-01 15:13:54.091,-0.229193369547526,
1058,1058,4234,2021-10-01 15:13:54.095,-0.1843706766764323,
1059,1059,4238,2021-10-01 15:13:54.099,-0.2012538909912109,
1060,1060,4242,2021-10-01 15:13:54.103,-0.2064832051595052,
1061,1061,4246,2021-10-01 15:13:54.107,-0.1777966817220052,
1062,1062,4250,2021-10-01 15:13:54.111,-0.2341238657633463,
1063,1063,4254,2021-10-01 15:13:54.115,-0.2037938435872396,
1064,1064,4258,2021-10-01 15:13:54.119,-0.2323309580485026,
1065,1065,4262,2021-10-01 15:13:54.123,-0.2466742197672526,
1066,1066,4266,2021-10-01 15:13:54.127,-0.2188841501871745,
1067,1067,4270,2021-10-01 15:13:54.131,-0.272223154703776,
1068,1068,4274,2021-10-01 15:13:54.135,-0.2415943145751953,
1069,1069,4278,2021-10-01 15:13:54.139,-0.2517541249593099,
1070,1070,4282,2021-10-01 15:13:54.143,-0.2466742197672526,
1071,1071,4286,2021-10-01 15:13:54.147,-0.193932851155599,
1072,1072,4290,2021-10-01 15:13:54.151,-0.2276992797851562,
1073,1073,4294,2021-10-01 15:13:54.155,-0.1846694946289062,
1074,1074,4298,2021-10-01 15:13:54.159,-0.2202288309733073,
1075,1075,4302,2021-10-01 15:13:54.163,-0.2454789479573568,
1076,1076,4306,2021-10-01 15:13:54.167,-0.2121607462565104,
1077,1077,4310,2021-10-01 15:13:54.171,-0.2516047159830729,
1078,1078,4314,2021-10-01 15:13:54.175,-0.1994609832763672,
1079,1079,4318,2021-10-01 15:13:54.179,-0.2208264668782552,
1080,1080,4322,2021-10-01 15:13:54.183,-0.258328119913737,
1081,1081,4326,2021-10-01 15:13:54.187,-0.2380084991455078,
1082,1082,4330,2021-10-01 15:13:54.191,-0.24383544921875,
1083,1083,4334,2021-10-01 15:13:54.195,-0.0648434956868489,
1084,1084,4338,2021-10-01 15:13:54.199,0.1440302530924479,
1085,1085,4342,2021-10-01 15:13:54.203,0.4040018717447917,
1086,1086,4346,2021-10-01 15:13:54.207,0.6572500864664714,
1087,1087,4350,2021-10-01 15:13:54.211,0.6331952412923177,
1088,1088,4354,2021-10-01 15:13:54.215,0.3597768147786458,
1089,1089,4358,2021-10-01 15:13:54.219,-0.3436406453450521,
1090,1090,4362,2021-10-01 15:13:54.223,-1.1235555013020837,
1091,1091,4366,2021-10-01 15:13:54.227,-1.6400623321533203,
1092,1092,4370,2021-10-01 15:13:54.231,-1.78648312886556,
1093,1093,4374,2021-10-01 15:13:54.235,-1.4544963836669924,
1094,1094,4378,2021-10-01 15:13:54.239,-0.9642855326334636,
1095,1095,4382,2021-10-01 15:13:54.243,-0.4576396942138672,
1096,1096,4386,2021-10-01 15:13:54.247,-0.028238296508789,
1097,1097,4390,2021-10-01 15:13:54.251,0.143133799235026,
1098,1098,4394,2021-10-01 15:13:54.255,0.2420425415039062,
1099,1099,4398,2021-10-01 15:13:54.259,0.2021503448486328,
1100,1100,4402,2021-10-01 15:13:54.263,0.1316293080647786,
1101,1101,4406,2021-10-01 15:13:54.267,0.1093673706054687,
1102,1102,4410,2021-10-01 15:13:54.271,0.0159867604573567,
1103,1103,4414,2021-10-01 15:13:54.275,0.0132973988850911,
1104,1104,4418,2021-10-01 15:13:54.279,-0.0422827402750651,
1105,1105,4422,2021-10-01 15:13:54.283,-0.0757503509521484,
1106,1106,4426,2021-10-01 15:13:54.287,-0.0652917226155599,
1107,1107,4430,2021-10-01 15:13:54.291,-0.1365598042805989,
1108,1108,4434,2021-10-01 15:13:54.295,-0.1284917195638021,
1109,1109,4438,2021-10-01 15:13:54.299,-0.1763025919596354,
1110,1110,4442,2021-10-01 15:13:54.303,-0.2108160654703776,
1111,1111,4446,2021-10-01 15:13:54.307,-0.1873588562011719,
1112,1112,4450,2021-10-01 15:13:54.311,-0.2426401774088541,
1113,1113,4454,2021-10-01 15:13:54.315,-0.2058855692545573,
1114,1114,4458,2021-10-01 15:13:54.319,-0.2357673645019531,
1115,1115,4462,2021-10-01 15:13:54.323,-0.2539952596028646,
1116,1116,4466,2021-10-01 15:13:54.327,-0.2203782399495443,
1117,1117,4470,2021-10-01 15:13:54.331,-0.2637068430582682,
1118,1118,4474,2021-10-01 15:13:54.335,-0.2269522349039713,
1119,1119,4478,2021-10-01 15:13:54.339,-0.2453295389811198,
1120,1120,4482,2021-10-01 15:13:54.343,-0.2619139353434245,
1121,1121,4486,2021-10-01 15:13:54.347,-0.2282969156901041,
1122,1122,4490,2021-10-01 15:13:54.351,-0.2716255187988282,
1123,1123,4494,2021-10-01 15:13:54.355,-0.2248605092366536,
1124,1124,4498,2021-10-01 15:13:54.359,-0.2372614542643229,
1125,1125,4502,2021-10-01 15:13:54.363,-0.2380084991455078,
1126,1126,4506,2021-10-01 15:13:54.367,-0.2002080281575521,
1127,1127,4510,2021-10-01 15:13:54.371,-0.2505588531494141,
1128,1128,4514,2021-10-01 15:13:54.375,-0.2144018809000651,
1129,1129,4518,2021-10-01 15:13:54.379,-0.2393531799316406,
1130,1130,4522,2021-10-01 15:13:54.383,-0.251305898030599,
1131,1131,4526,2021-10-01 15:13:54.387,-0.2124595642089844,
1132,1132,4530,2021-10-01 15:13:54.391,-0.2628103892008464,
1133,1133,4534,2021-10-01 15:13:54.395,-0.2266534169514974,
1134,1134,4538,2021-10-01 15:13:54.399,-0.2447319030761719,
1135,1135,4542,2021-10-01 15:13:54.403,-0.2525011698404948,
1136,1136,4546,2021-10-01 15:13:54.407,-0.2117125193277995,
1137,1137,4550,2021-10-01 15:13:54.411,-0.2529493967692057,
1138,1138,4554,2021-10-01 15:13:54.415,-0.2117125193277995,
1139,1139,4558,2021-10-01 15:13:54.419,-0.2282969156901041,
1140,1140,4562,2021-10-01 15:13:54.423,-0.2315839131673177,
1141,1141,4566,2021-10-01 15:13:54.427,-0.1954269409179687,
1142,1142,4570,2021-10-01 15:13:54.431,-0.2495129903157552,
1143,1143,4574,2021-10-01 15:13:54.435,-0.2185853322347005,
1144,1144,4578,2021-10-01 15:13:54.439,-0.2406978607177734,
1145,1145,4582,2021-10-01 15:13:54.443,-0.2492141723632812,
1146,1146,4586,2021-10-01 15:13:54.447,-0.2090231577555338,
1147,1147,4590,2021-10-01 15:13:54.451,-0.251007080078125,
1148,1148,4594,2021-10-01 15:13:54.455,-0.2097702026367187,
1149,1149,4598,2021-10-01 15:13:54.459,-0.2354685465494791,
1150,1150,4602,2021-10-01 15:13:54.463,-0.2492141723632812,
1151,1151,4606,2021-10-01 15:13:54.467,-0.2088737487792969,
1152,1152,4610,2021-10-01 15:13:54.471,-0.2474212646484375,
1153,1153,4614,2021-10-01 15:13:54.475,-0.2020009358723958,
1154,1154,4618,2021-10-01 15:13:54.479,-0.2179876963297526,
1155,1155,4622,2021-10-01 15:13:54.483,-0.2269522349039713,
1156,1156,4626,2021-10-01 15:13:54.487,-0.1891517639160156,
1157,1157,4630,2021-10-01 15:13:54.491,-0.2311356862386068,
1158,1158,4634,2021-10-01 15:13:54.495,-0.1909446716308594,
1159,1159,4638,2021-10-01 15:13:54.499,-0.2097702026367187,
1160,1160,4642,2021-10-01 15:13:54.503,-0.2185853322347005,
1161,1161,4646,2021-10-01 15:13:54.507,-0.1777966817220052,
1162,1162,4650,2021-10-01 15:13:54.511,-0.2233664194742838,
1163,1163,4654,2021-10-01 15:13:54.515,-0.1858647664388021,
1164,1164,4658,2021-10-01 15:13:54.519,-0.2093219757080078,
1165,1165,4662,2021-10-01 15:13:54.523,-0.215298334757487,
1166,1166,4666,2021-10-01 15:13:54.527,-0.1752567291259766,
1167,1167,4670,2021-10-01 15:13:54.531,-0.222021738688151,
1168,1168,4674,2021-10-01 15:13:54.535,-0.1890023549397786,
1169,1169,4678,2021-10-01 15:13:54.539,-0.2117125193277995,
1170,1170,4682,2021-10-01 15:13:54.543,-0.2281475067138672,
1171,1171,4686,2021-10-01 15:13:54.547,-0.1904964447021484,
1172,1172,4690,2021-10-01 15:13:54.551,-0.2327791849772135,
1173,1173,4694,2021-10-01 15:13:54.555,-0.1990127563476562,
1174,1174,4698,2021-10-01 15:13:54.559,-0.2241134643554687,
1175,1175,4702,2021-10-01 15:13:54.563,-0.2399508158365885,
1176,1176,4706,2021-10-01 15:13:54.567,-0.2051385243733724,
1177,1177,4710,2021-10-01 15:13:54.571,-0.2501106262207032,
1178,1178,4714,2021-10-01 15:13:54.575,-0.2105172475179036,
1179,1179,4718,2021-10-01 15:13:54.579,-0.2342732747395833,
1180,1180,4722,2021-10-01 15:13:54.583,-0.2471224466959635,
1181,1181,4726,2021-10-01 15:13:54.587,-0.2121607462565104,
1182,1182,4730,2021-10-01 15:13:54.591,-0.2568340301513672,
1183,1183,4734,2021-10-01 15:13:54.595,-0.2135054270426432,
1184,1184,4738,2021-10-01 15:13:54.599,-0.2315839131673177,
1185,1185,4742,2021-10-01 15:13:54.603,-0.2420425415039062,
1186,1186,4746,2021-10-01 15:13:54.607,-0.2064832051595052,
1187,1187,4750,2021-10-01 15:13:54.611,-0.2505588531494141,
1188,1188,4754,2021-10-01 15:13:54.615,-0.207977294921875,
1189,1189,4758,2021-10-01 15:13:54.619,-0.2278486887613932,
1190,1190,4762,2021-10-01 15:13:54.623,-0.2401002248128255,
1191,1191,4766,2021-10-01 15:13:54.627,-0.2031962076822916,
1192,1192,4770,2021-10-01 15:13:54.631,-0.2457777659098307,
1193,1193,4774,2021-10-01 15:13:54.635,-0.2055867513020833,
1194,1194,4778,2021-10-01 15:13:54.639,-0.2253087361653646,
1195,1195,4782,2021-10-01 15:13:54.643,-0.2339744567871094,
1196,1196,4786,2021-10-01 15:13:54.647,-0.1948293050130208,
1197,1197,4790,2021-10-01 15:13:54.651,-0.2371120452880859,
1198,1198,4794,2021-10-01 15:13:54.655,-0.1991621653238932,
1199,1199,4798,2021-10-01 15:13:54.659,-0.2227687835693359,
1200,1200,4802,2021-10-01 15:13:54.663,-0.2341238657633463,
1201,1201,4806,2021-10-01 15:13:54.667,-0.1940822601318359,
1202,1202,4810,2021-10-01 15:13:54.671,-0.236514409383138,
1203,1203,4814,2021-10-01 15:13:54.675,-0.1994609832763672,
1204,1204,4818,2021-10-01 15:13:54.679,-0.222171147664388,
1205,1205,4822,2021-10-01 15:13:54.683,-0.2377096811930338,
1206,1206,4826,2021-10-01 15:13:54.687,-0.200656255086263,
1207,1207,4830,2021-10-01 15:13:54.691,-0.2399508158365885,
1208,1208,4834,2021-10-01 15:13:54.695,-0.2022997538248698,
1209,1209,4838,2021-10-01 15:13:54.699,-0.2208264668782552,
1210,1210,4842,2021-10-01 15:13:54.703,-0.2281475067138672,
1211,1211,4846,2021-10-01 15:13:54.707,-0.1881059010823567,
1212,1212,4850,2021-10-01 15:13:54.711,-0.2383073170979818,
1213,1213,4854,2021-10-01 15:13:54.715,-0.2037938435872396,
1214,1214,4858,2021-10-01 15:13:54.719,-0.2279980977376302,
1215,1215,4862,2021-10-01 15:13:54.723,-0.236514409383138,
1216,1216,4866,2021-10-01 15:13:54.727,-0.2000586191813151,
1217,1217,4870,2021-10-01 15:13:54.731,-0.2395025889078776,
1218,1218,4874,2021-10-01 15:13:54.735,-0.1960245768229166,
1219,1219,4878,2021-10-01 15:13:54.739,-0.2194817860921224,
1220,1220,4882,2021-10-01 15:13:54.743,-0.2345720926920573,
1221,1221,4886,2021-10-01 15:13:54.747,-0.2000586191813151,
1222,1222,4890,2021-10-01 15:13:54.751,-0.2406978607177734,
1223,1223,4894,2021-10-01 15:13:54.755,-0.2033456166585286,
1224,1224,4898,2021-10-01 15:13:54.759,-0.2229181925455729,
1225,1225,4902,2021-10-01 15:13:54.763,-0.2306874593098958,
1226,1226,4906,2021-10-01 15:13:54.767,-0.1906458536783854,
1227,1227,4910,2021-10-01 15:13:54.771,-0.2386061350504557,
1228,1228,4914,2021-10-01 15:13:54.775,-0.2061843872070312,
1229,1229,4918,2021-10-01 15:13:54.779,-0.2353191375732422,
1230,1230,4922,2021-10-01 15:13:54.783,-0.2475706736246745,
1231,1231,4926,2021-10-01 15:13:54.787,-0.1993115743001302,
1232,1232,4930,2021-10-01 15:13:54.791,-0.2414449055989583,
1233,1233,4934,2021-10-01 15:13:54.795,-0.2057361602783203,
1234,1234,4938,2021-10-01 15:13:54.799,-0.2245616912841797,
1235,1235,4942,2021-10-01 15:13:54.803,-0.2327791849772135,
1236,1236,4946,2021-10-01 15:13:54.807,-0.1960245768229166,
1237,1237,4950,2021-10-01 15:13:54.811,-0.2393531799316406,
1238,1238,4954,2021-10-01 15:13:54.815,-0.2036444346110026,
1239,1239,4958,2021-10-01 15:13:54.819,-0.2274004618326823,
1240,1240,4962,2021-10-01 15:13:54.823,-0.2402496337890625,
1241,1241,4966,2021-10-01 15:13:54.827,-0.2014032999674479,
1242,1242,4970,2021-10-01 15:13:54.831,-0.2418931325276693,
1243,1243,4974,2021-10-01 15:13:54.835,-0.1997598012288411,
1244,1244,4978,2021-10-01 15:13:54.839,-0.222320556640625,
1245,1245,4982,2021-10-01 15:13:54.843,-0.2341238657633463,
1246,1246,4986,2021-10-01 15:13:54.847,-0.1994609832763672,
1247,1247,4990,2021-10-01 15:13:54.851,-0.2483177185058594,
1248,1248,4994,2021-10-01 15:13:54.855,-0.2102184295654297,
1249,1249,4998,2021-10-01 15:13:54.859,-0.2278486887613932,
1250,1250,5002,2021-10-01 15:13:54.863,-0.2426401774088541,
1251,1251,5006,2021-10-01 15:13:54.867,-0.2028973897298177,
1252,1252,5010,2021-10-01 15:13:54.871,-0.2357673645019531,
1253,1253,5014,2021-10-01 15:13:54.875,-0.1973692576090495,
1254,1254,5018,2021-10-01 15:13:54.879,-0.214999516805013,
1255,1255,5022,2021-10-01 15:13:54.883,-0.229791005452474,
1256,1256,5026,2021-10-01 15:13:54.887,-0.1909446716308594,
1257,1257,5030,2021-10-01 15:13:54.891,-0.2338250478108724,
1258,1258,5034,2021-10-01 15:13:54.895,-0.193783442179362,
1259,1259,5038,2021-10-01 15:13:54.899,-0.2100690205891927,
1260,1260,5042,2021-10-01 15:13:54.903,-0.2167924245198568,
1261,1261,5046,2021-10-01 15:13:54.907,-0.1771990458170573,
1262,1262,5050,2021-10-01 15:13:54.911,-0.2227687835693359,
1263,1263,5054,2021-10-01 15:13:54.915,-0.1943810780843099,
1264,1264,5058,2021-10-01 15:13:54.919,-0.2308368682861328,
1265,1265,5062,2021-10-01 15:13:54.923,-0.2595233917236328,
1266,1266,5066,2021-10-01 15:13:54.927,-0.2378590901692708,
1267,1267,5070,2021-10-01 15:13:54.931,-0.2780501047770182,
1268,1268,5074,2021-10-01 15:13:54.935,-0.2256075541178385,
1269,1269,5078,2021-10-01 15:13:54.939,-0.2380084991455078,
1270,1270,5082,2021-10-01 15:13:54.943,-0.2429389953613281,
1271,1271,5086,2021-10-01 15:13:54.947,-0.2015527089436849,
1272,1272,5090,2021-10-01 15:13:54.951,-0.2484671274820963,
1273,1273,5094,2021-10-01 15:13:54.955,-0.2090231577555338,
1274,1274,5098,2021-10-01 15:13:54.959,-0.2211252848307291,
1275,1275,5102,2021-10-01 15:13:54.963,-0.2282969156901041,
1276,1276,5106,2021-10-01 15:13:54.967,-0.1836236317952474,
1277,1277,5110,2021-10-01 15:13:54.971,-0.2256075541178385,
1278,1278,5114,2021-10-01 15:13:54.975,-0.1906458536783854,
1279,1279,5118,2021-10-01 15:13:54.979,-0.2055867513020833,
1280,1280,5122,2021-10-01 15:13:54.983,-0.2789465586344401,
1281,1281,5126,2021-10-01 15:13:54.987,-0.2499612172444661,
1282,1282,5130,2021-10-01 15:13:54.991,-0.2599716186523438,
1283,1283,5134,2021-10-01 15:13:54.995,-0.1175848642985026,
1284,1284,5138,2021-10-01 15:13:54.999,0.1208718617757161,
1285,1285,5142,2021-10-01 15:13:55.003,0.3621673583984375,
1286,1286,5146,2021-10-01 15:13:55.007,0.6451479593912761,
1287,1287,5150,2021-10-01 15:13:55.011,0.6593418121337892,
1288,1288,5154,2021-10-01 15:13:55.015,0.4150581359863282,
1289,1289,5158,2021-10-01 15:13:55.019,-0.200955073038737,
1290,1290,5162,2021-10-01 15:13:55.023,-1.0153834025065105,
1291,1291,5166,2021-10-01 15:13:55.027,-1.5947914123535158,
1292,1292,5170,2021-10-01 15:13:55.031,-1.8293635050455728,
1293,1293,5174,2021-10-01 15:13:55.035,-1.564760208129883,
1294,1294,5178,2021-10-01 15:13:55.039,-1.0386912027994792,
1295,1295,5182,2021-10-01 15:13:55.043,-0.5248737335205079,
1296,1296,5186,2021-10-01 15:13:55.047,-0.0600624084472656,
1297,1297,5190,2021-10-01 15:13:55.051,0.1265494028727213,
1298,1298,5194,2021-10-01 15:13:55.055,0.2072302500406901,
1299,1299,5198,2021-10-01 15:13:55.059,0.1966222127278646,
1300,1300,5202,2021-10-01 15:13:55.063,0.1237106323242187,
1301,1301,5206,2021-10-01 15:13:55.067,0.1304340362548828,
1302,1302,5210,2021-10-01 15:13:55.071,0.0476614634195963,
1303,1303,5214,2021-10-01 15:13:55.075,0.0265947977701822,
1304,1304,5218,2021-10-01 15:13:55.079,-0.0034364064534505,
1305,1305,5222,2021-10-01 15:13:55.083,-0.0751527150472005,
1306,1306,5226,2021-10-01 15:13:55.087,-0.0676822662353515,
1307,1307,5230,2021-10-01 15:13:55.091,-0.1365598042805989,
1308,1308,5234,2021-10-01 15:13:55.095,-0.1429843902587891,
1309,1309,5238,2021-10-01 15:13:55.099,-0.1588217417399088,
1310,1310,5242,2021-10-01 15:13:55.103,-0.2158959706624349,
1311,1311,5246,2021-10-01 15:13:55.107,-0.1810836791992187,
1312,1312,5250,2021-10-01 15:13:55.111,-0.2251593271891276,
1313,1313,5254,2021-10-01 15:13:55.115,-0.2088737487792969,
1314,1314,5258,2021-10-01 15:13:55.119,-0.2064832051595052,
1315,1315,5262,2021-10-01 15:13:55.123,-0.2559375762939453,
1316,1316,5266,2021-10-01 15:13:55.127,-0.2185853322347005,
1317,1317,5270,2021-10-01 15:13:55.131,-0.2617645263671875,
1318,1318,5274,2021-10-01 15:13:55.135,-0.2533976236979167,
1319,1319,5278,2021-10-01 15:13:55.139,-0.2462259928385416,
1320,1320,5282,2021-10-01 15:13:55.143,-0.2762571970621745,
1321,1321,5286,2021-10-01 15:13:55.147,-0.2232170104980469,
1322,1322,5290,2021-10-01 15:13:55.151,-0.2548917134602865,
1323,1323,5294,2021-10-01 15:13:55.155,-0.2256075541178385,
1324,1324,5298,2021-10-01 15:13:55.159,-0.2105172475179036,
1325,1325,5302,2021-10-01 15:13:55.163,-0.2453295389811198,
1326,1326,5306,2021-10-01 15:13:55.167,-0.1982657114664713,
1327,1327,5310,2021-10-01 15:13:55.171,-0.243984858194987,
1328,1328,5314,2021-10-01 15:13:55.175,-0.2338250478108724,
1329,1329,5318,2021-10-01 15:13:55.179,-0.222469965616862,
1330,1330,5322,2021-10-01 15:13:55.183,-0.2502600351969401,
1331,1331,5326,2021-10-01 15:13:55.187,-0.2067820231119791,
1332,1332,5330,2021-10-01 15:13:55.191,-0.2495129903157552,
1333,1333,5334,2021-10-01 15:13:55.195,-0.2335262298583984,
1334,1334,5338,2021-10-01 15:13:55.199,-0.2336756388346354,
1335,1335,5342,2021-10-01 15:13:55.203,-0.2619139353434245,
1336,1336,5346,2021-10-01 15:13:55.207,-0.207827885945638,
1337,1337,5350,2021-10-01 15:13:55.211,-0.2572822570800782,
1338,1338,5354,2021-10-01 15:13:55.215,-0.2381579081217448,
1339,1339,5358,2021-10-01 15:13:55.219,-0.2175394694010416,
1340,1340,5362,2021-10-01 15:13:55.223,-0.2468236287434896,
1341,1341,5366,2021-10-01 15:13:55.227,-0.1945304870605469,
1342,1342,5370,2021-10-01 15:13:55.231,-0.2393531799316406,
1343,1343,5374,2021-10-01 15:13:55.235,-0.2309862772623698,
1344,1344,5378,2021-10-01 15:13:55.239,-0.2302392323811849,
1345,1345,5382,2021-10-01 15:13:55.243,-0.265649159749349,
1346,1346,5386,2021-10-01 15:13:55.247,-0.2242628733317057,
1347,1347,5390,2021-10-01 15:13:55.251,-0.2663962046305339,
1348,1348,5394,2021-10-01 15:13:55.255,-0.2448813120524088,
1349,1349,5398,2021-10-01 15:13:55.259,-0.2324803670247396,
1350,1350,5402,2021-10-01 15:13:55.263,-0.2554893493652344,
1351,1351,5406,2021-10-01 15:13:55.267,-0.1987139383951823,
1352,1352,5410,2021-10-01 15:13:55.271,-0.2360661824544271,
1353,1353,5414,2021-10-01 15:13:55.275,-0.2144018809000651,
1354,1354,5418,2021-10-01 15:13:55.279,-0.1984151204427083,
1355,1355,5422,2021-10-01 15:13:55.283,-0.2350203196207682,
1356,1356,5426,2021-10-01 15:13:55.287,-0.1916917165120443,
1357,1357,5430,2021-10-01 15:13:55.291,-0.2211252848307291,
1358,1358,5434,2021-10-01 15:13:55.295,-0.1963233947753906,
1359,1359,5438,2021-10-01 15:13:55.299,-0.1851177215576172,
1360,1360,5442,2021-10-01 15:13:55.303,-0.2194817860921224,
1361,1361,5446,2021-10-01 15:13:55.307,-0.1771990458170573,
1362,1362,5450,2021-10-01 15:13:55.311,-0.2238146464029948,
1363,1363,5454,2021-10-01 15:13:55.315,-0.2015527089436849,
1364,1364,5458,2021-10-01 15:13:55.319,-0.1842212677001953,
1365,1365,5462,2021-10-01 15:13:55.323,-0.2197806040445963,
1366,1366,5466,2021-10-01 15:13:55.327,-0.1854165395100911,
1367,1367,5470,2021-10-01 15:13:55.331,-0.2233664194742838,
1368,1368,5474,2021-10-01 15:13:55.335,-0.1952775319417318,
1369,1369,5478,2021-10-01 15:13:55.339,-0.1928869883219401,
1370,1370,5482,2021-10-01 15:13:55.343,-0.2335262298583984,
1371,1371,5486,2021-10-01 15:13:55.347,-0.1878070831298828,
1372,1372,5490,2021-10-01 15:13:55.351,-0.2318827311197916,
1373,1373,5494,2021-10-01 15:13:55.355,-0.2075290679931641,
1374,1374,5498,2021-10-01 15:13:55.359,-0.1957257588704427,
1375,1375,5502,2021-10-01 15:13:55.363,-0.2309862772623698,
1376,1376,5506,2021-10-01 15:13:55.367,-0.1878070831298828,
1377,1377,5510,2021-10-01 15:13:55.371,-0.2356179555257161,
1378,1378,5514,2021-10-01 15:13:55.375,-0.2257569630940755,
1379,1379,5518,2021-10-01 15:13:55.379,-0.229342778523763,
1380,1380,5522,2021-10-01 15:13:55.383,-0.2671432495117188,
1381,1381,5526,2021-10-01 15:13:55.387,-0.2193323771158854,
1382,1382,5530,2021-10-01 15:13:55.391,-0.2556387583414714,
1383,1383,5534,2021-10-01 15:13:55.395,-0.2348709106445312,
1384,1384,5538,2021-10-01 15:13:55.399,-0.2239640553792318,
1385,1385,5542,2021-10-01 15:13:55.403,-0.2557881673177083,
1386,1386,5546,2021-10-01 15:13:55.407,-0.2058855692545573,
1387,1387,5550,2021-10-01 15:13:55.411,-0.2426401774088541,
1388,1388,5554,2021-10-01 15:13:55.415,-0.2206770579020182,
1389,1389,5558,2021-10-01 15:13:55.419,-0.214999516805013,
1390,1390,5562,2021-10-01 15:13:55.423,-0.2498118082682291,
1391,1391,5566,2021-10-01 15:13:55.427,-0.1945304870605469,
1392,1392,5570,2021-10-01 15:13:55.431,-0.2308368682861328,
1393,1393,5574,2021-10-01 15:13:55.435,-0.2117125193277995,
1394,1394,5578,2021-10-01 15:13:55.439,-0.1960245768229166,
1395,1395,5582,2021-10-01 15:13:55.443,-0.2317333221435547,
1396,1396,5586,2021-10-01 15:13:55.447,-0.1890023549397786,
1397,1397,5590,2021-10-01 15:13:55.451,-0.2345720926920573,
1398,1398,5594,2021-10-01 15:13:55.455,-0.2179876963297526,
1399,1399,5598,2021-10-01 15:13:55.459,-0.208276112874349,
1400,1400,5602,2021-10-01 15:13:55.463,-0.2447319030761719,
1401,1401,5606,2021-10-01 15:13:55.467,-0.1967716217041016,
1402,1402,5610,2021-10-01 15:13:55.471,-0.2381579081217448,
1403,1403,5614,2021-10-01 15:13:55.475,-0.2199300130208333,
1404,1404,5618,2021-10-01 15:13:55.479,-0.2066326141357422,
1405,1405,5622,2021-10-01 15:13:55.483,-0.236514409383138,
1406,1406,5626,2021-10-01 15:13:55.487,-0.1903470357259114,
1407,1407,5630,2021-10-01 15:13:55.491,-0.2339744567871094,
1408,1408,5634,2021-10-01 15:13:55.495,-0.2160453796386719,
1409,1409,5638,2021-10-01 15:13:55.499,-0.2054373423258463,
1410,1410,5642,2021-10-01 15:13:55.503,-0.2415943145751953,
1411,1411,5646,2021-10-01 15:13:55.507,-0.1994609832763672,
1412,1412,5650,2021-10-01 15:13:55.511,-0.2427895863850911,
1413,1413,5654,2021-10-01 15:13:55.515,-0.2232170104980469,
1414,1414,5658,2021-10-01 15:13:55.519,-0.2127583821614583,
1415,1415,5662,2021-10-01 15:13:55.523,-0.2421919504801432,
1416,1416,5666,2021-10-01 15:13:55.527,-0.1901976267496745,
1417,1417,5670,2021-10-01 15:13:55.531,-0.2320321400960286,
1418,1418,5674,2021-10-01 15:13:55.535,-0.215447743733724,
1419,1419,5678,2021-10-01 15:13:55.539,-0.2093219757080078,
1420,1420,5682,2021-10-01 15:13:55.543,-0.243984858194987,
1421,1421,5686,2021-10-01 15:13:55.547,-0.1985645294189453,
1422,1422,5690,2021-10-01 15:13:55.551,-0.2415943145751953,
1423,1423,5694,2021-10-01 15:13:55.555,-0.2314345041910807,
1424,1424,5698,2021-10-01 15:13:55.559,-0.2317333221435547,
1425,1425,5702,2021-10-01 15:13:55.563,-0.265649159749349,
1426,1426,5706,2021-10-01 15:13:55.567,-0.2132066090901693,
1427,1427,5710,2021-10-01 15:13:55.571,-0.2430884043375651,
1428,1428,5714,2021-10-01 15:13:55.575,-0.2132066090901693,
1429,1429,5718,2021-10-01 15:13:55.579,-0.1948293050130208,
1430,1430,5722,2021-10-01 15:13:55.583,-0.2235158284505208,
1431,1431,5726,2021-10-01 15:13:55.587,-0.1703262329101562,
1432,1432,5730,2021-10-01 15:13:55.591,-0.2132066090901693,
1433,1433,5734,2021-10-01 15:13:55.595,-0.1961739857991536,
1434,1434,5738,2021-10-01 15:13:55.599,-0.1860141754150391,
1435,1435,5742,2021-10-01 15:13:55.603,-0.2178382873535156,
1436,1436,5746,2021-10-01 15:13:55.607,-0.1730155944824219,
1437,1437,5750,2021-10-01 15:13:55.611,-0.2185853322347005,
1438,1438,5754,2021-10-01 15:13:55.615,-0.2030467987060547,
1439,1439,5758,2021-10-01 15:13:55.619,-0.1942316691080729,
1440,1440,5762,2021-10-01 15:13:55.623,-0.2256075541178385,
1441,1441,5766,2021-10-01 15:13:55.627,-0.1785437266031901,
1442,1442,5770,2021-10-01 15:13:55.631,-0.2323309580485026,
1443,1443,5774,2021-10-01 15:13:55.635,-0.2377096811930338,
1444,1444,5778,2021-10-01 15:13:55.639,-0.2456283569335937,
1445,1445,5782,2021-10-01 15:13:55.643,-0.2823829650878907,
1446,1446,5786,2021-10-01 15:13:55.647,-0.2299404144287109,
1447,1447,5790,2021-10-01 15:13:55.651,-0.265350341796875,
1448,1448,5794,2021-10-01 15:13:55.655,-0.2450307210286458,
1449,1449,5798,2021-10-01 15:13:55.659,-0.2317333221435547,
1450,1450,5802,2021-10-01 15:13:55.663,-0.2539952596028646,
1451,1451,5806,2021-10-01 15:13:55.667,-0.1987139383951823,
1452,1452,5810,2021-10-01 15:13:55.671,-0.2353191375732422,
1453,1453,5814,2021-10-01 15:13:55.675,-0.2138042449951172,
1454,1454,5818,2021-10-01 15:13:55.679,-0.2000586191813151,
1455,1455,5822,2021-10-01 15:13:55.683,-0.2311356862386068,
1456,1456,5826,2021-10-01 15:13:55.687,-0.1878070831298828,
1457,1457,5830,2021-10-01 15:13:55.691,-0.2359167734781901,
1458,1458,5834,2021-10-01 15:13:55.695,-0.2236652374267578,
1459,1459,5838,2021-10-01 15:13:55.699,-0.2338250478108724,
1460,1460,5842,2021-10-01 15:13:55.703,-0.2898534138997396,
1461,1461,5846,2021-10-01 15:13:55.707,-0.2398014068603516,
1462,1462,5850,2021-10-01 15:13:55.711,-0.2091725667317708,
1463,1463,5854,2021-10-01 15:13:55.715,-0.0236066182454427,
1464,1464,5858,2021-10-01 15:13:55.719,0.2374108632405599,
1465,1465,5862,2021-10-01 15:13:55.723,0.4917049407958985,
1466,1466,5866,2021-10-01 15:13:55.727,0.7471942901611329,
1467,1467,5870,2021-10-01 15:13:55.731,0.6502278645833334,
1468,1468,5874,2021-10-01 15:13:55.735,0.2462259928385416,
1469,1469,5878,2021-10-01 15:13:55.739,-0.5393664042154949,
1470,1470,5882,2021-10-01 15:13:55.743,-1.3609663645426433,
1471,1471,5886,2021-10-01 15:13:55.747,-1.81516965230306,
1472,1472,5890,2021-10-01 15:13:55.751,-1.839523315429688,
1473,1473,5894,2021-10-01 15:13:55.755,-1.4010079701741538,
1474,1474,5898,2021-10-01 15:13:55.759,-0.8074061075846355,
1475,1475,5902,2021-10-01 15:13:55.763,-0.3106212615966797,
1476,1476,5906,2021-10-01 15:13:55.767,0.0796349843343099,
1477,1477,5910,2021-10-01 15:13:55.771,0.1875082651774088,
1478,1478,5914,2021-10-01 15:13:55.775,0.2241134643554687,
1479,1479,5918,2021-10-01 15:13:55.779,0.1966222127278646,
1480,1480,5922,2021-10-01 15:13:55.783,0.1193777720133463,
1481,1481,5926,2021-10-01 15:13:55.787,0.1166884104410807,
1482,1482,5930,2021-10-01 15:13:55.791,0.035708745320638,
1483,1483,5934,2021-10-01 15:13:55.795,0.0144926706949869,
1484,1484,5938,2021-10-01 15:13:55.799,-0.0173314412434895,
1485,1485,5942,2021-10-01 15:13:55.803,-0.0845654805501302,
1486,1486,5946,2021-10-01 15:13:55.807,-0.0708198547363281,
1487,1487,5950,2021-10-01 15:13:55.811,-0.1393985748291016,
1488,1488,5954,2021-10-01 15:13:55.815,-0.1520983378092448,
1489,1489,5958,2021-10-01 15:13:55.819,-0.1659933725992838,
1490,1490,5962,2021-10-01 15:13:55.823,-0.2173900604248047,
1491,1491,5966,2021-10-01 15:13:55.827,-0.1887035369873047,
1492,1492,5970,2021-10-01 15:13:55.831,-0.2423413594563802,
1493,1493,5974,2021-10-01 15:13:55.835,-0.2375602722167969,
1494,1494,5978,2021-10-01 15:13:55.839,-0.236365000406901,
1495,1495,5982,2021-10-01 15:13:55.843,-0.2707290649414063,
1496,1496,5986,2021-10-01 15:13:55.847,-0.222619374593099,
1497,1497,5990,2021-10-01 15:13:55.851,-0.2533976236979167,
1498,1498,5994,2021-10-01 15:13:55.855,-0.2306874593098958,
1499,1499,5998,2021-10-01 15:13:55.859,-0.2200794219970703,
1500,1500,6002,2021-10-01 15:13:55.863,-0.251156489054362,
1501,1501,6006,2021-10-01 15:13:55.867,-0.2126089731852213,
1502,1502,6010,2021-10-01 15:13:55.871,-0.2592245737711589,
1503,1503,6014,2021-10-01 15:13:55.875,-0.2399508158365885,
1504,1504,6018,2021-10-01 15:13:55.879,-0.2268028259277344,
1505,1505,6022,2021-10-01 15:13:55.883,-0.2575810750325521,
1506,1506,6026,2021-10-01 15:13:55.887,-0.2114137013753255,
1507,1507,6030,2021-10-01 15:13:55.891,-0.2496623992919922,
1508,1508,6034,2021-10-01 15:13:55.895,-0.2303886413574219,
1509,1509,6038,2021-10-01 15:13:55.899,-0.2193323771158854,
1510,1510,6042,2021-10-01 15:13:55.903,-0.2462259928385416,
1511,1511,6046,2021-10-01 15:13:55.907,-0.2052879333496094,
1512,1512,6050,2021-10-01 15:13:55.911,-0.2498118082682291,
1513,1513,6054,2021-10-01 15:13:55.915,-0.2302392323811849,
1514,1514,6058,2021-10-01 15:13:55.919,-0.222469965616862,
1515,1515,6062,2021-10-01 15:13:55.923,-0.2554893493652344,
1516,1516,6066,2021-10-01 15:13:55.927,-0.2158959706624349,
1517,1517,6070,2021-10-01 15:13:55.931,-0.2590751647949219,
1518,1518,6074,2021-10-01 15:13:55.935,-0.236663818359375,
1519,1519,6078,2021-10-01 15:13:55.939,-0.2281475067138672,
1520,1520,6082,2021-10-01 15:13:55.943,-0.2605692545572917,
1521,1521,6086,2021-10-01 15:13:55.947,-0.2253087361653646,
1522,1522,6090,2021-10-01 15:13:55.951,-0.2741654713948568,
1523,1523,6094,2021-10-01 15:13:55.955,-0.2563858032226563,
1524,1524,6098,2021-10-01 15:13:55.959,-0.243536631266276,
1525,1525,6102,2021-10-01 15:13:55.963,-0.2699820200602214,
1526,1526,6106,2021-10-01 15:13:55.967,-0.2191829681396484,
1527,1527,6110,2021-10-01 15:13:55.971,-0.2574316660563151,
1528,1528,6114,2021-10-01 15:13:55.975,-0.2378590901692708,
1529,1529,6118,2021-10-01 15:13:55.979,-0.1919905344645182,
1530,1530,6122,2021-10-01 15:13:55.983,-0.2409966786702474,
1531,1531,6126,2021-10-01 15:13:55.987,-0.208126703898112,
1532,1532,6130,2021-10-01 15:13:55.991,-0.2294921875,
1533,1533,6134,2021-10-01 15:13:55.995,-0.2314345041910807,
1534,1534,6138,2021-10-01 15:13:55.999,-0.1848189036051432,
1535,1535,6142,2021-10-01 15:13:56.003,-0.2181371053059896,
1536,1536,6146,2021-10-01 15:13:56.007,-0.172268549601237,
1537,1537,6150,2021-10-01 15:13:56.011,-0.1887035369873047,
1538,1538,6154,2021-10-01 15:13:56.015,-0.1981163024902344,
1539,1539,6158,2021-10-01 15:13:56.019,-0.164798100789388,
1540,1540,6162,2021-10-01 15:13:56.023,-0.2060349782307943,
1541,1541,6166,2021-10-01 15:13:56.027,-0.1680850982666016,
1542,1542,6170,2021-10-01 15:13:56.031,-0.1931858062744141,
1543,1543,6174,2021-10-01 15:13:56.035,-0.2033456166585286,
1544,1544,6178,2021-10-01 15:13:56.039,-0.1734638214111328,
1545,1545,6182,2021-10-01 15:13:56.043,-0.2185853322347005,
1546,1546,6186,2021-10-01 15:13:56.047,-0.1836236317952474,
1547,1547,6190,2021-10-01 15:13:56.051,-0.2088737487792969,
1548,1548,6194,2021-10-01 15:13:56.055,-0.2185853322347005,
1549,1549,6198,2021-10-01 15:13:56.059,-0.1855659484863281,
1550,1550,6202,2021-10-01 15:13:56.063,-0.2305380503336588,
1551,1551,6206,2021-10-01 15:13:56.067,-0.1963233947753906,
1552,1552,6210,2021-10-01 15:13:56.071,-0.2241134643554687,
1553,1553,6214,2021-10-01 15:13:56.075,-0.2377096811930338,
1554,1554,6218,2021-10-01 15:13:56.079,-0.2028973897298177,
1555,1555,6222,2021-10-01 15:13:56.083,-0.2472718556722005,
1556,1556,6226,2021-10-01 15:13:56.087,-0.2117125193277995,
1557,1557,6230,2021-10-01 15:13:56.091,-0.2362155914306641,
1558,1558,6234,2021-10-01 15:13:56.095,-0.244134267171224,
1559,1559,6238,2021-10-01 15:13:56.099,-0.2097702026367187,
1560,1560,6242,2021-10-01 15:13:56.103,-0.2539952596028646,
1561,1561,6246,2021-10-01 15:13:56.107,-0.2145512898763021,
1562,1562,6250,2021-10-01 15:13:56.111,-0.2359167734781901,
1563,1563,6254,2021-10-01 15:13:56.115,-0.2457777659098307,
1564,1564,6258,2021-10-01 15:13:56.119,-0.2123101552327474,
1565,1565,6262,2021-10-01 15:13:56.123,-0.2592245737711589,
1566,1566,6266,2021-10-01 15:13:56.127,-0.2194817860921224,
1567,1567,6270,2021-10-01 15:13:56.131,-0.2362155914306641,
1568,1568,6274,2021-10-01 15:13:56.135,-0.2429389953613281,
1569,1569,6278,2021-10-01 15:13:56.139,-0.2061843872070312,
1570,1570,6282,2021-10-01 15:13:56.143,-0.2505588531494141,
1571,1571,6286,2021-10-01 15:13:56.147,-0.2114137013753255,
1572,1572,6290,2021-10-01 15:13:56.151,-0.2317333221435547,
1573,1573,6294,2021-10-01 15:13:56.155,-0.2402496337890625,
1574,1574,6298,2021-10-01 15:13:56.159,-0.2039432525634766,
1575,1575,6302,2021-10-01 15:13:56.163,-0.2478694915771484,
1576,1576,6306,2021-10-01 15:13:56.167,-0.2088737487792969,
1577,1577,6310,2021-10-01 15:13:56.171,-0.2239640553792318,
1578,1578,6314,2021-10-01 15:13:56.175,-0.2324803670247396,
1579,1579,6318,2021-10-01 15:13:56.179,-0.1940822601318359,
1580,1580,6322,2021-10-01 15:13:56.183,-0.2335262298583984,
1581,1581,6326,2021-10-01 15:13:56.187,-0.1948293050130208,
1582,1582,6330,2021-10-01 15:13:56.191,-0.2175394694010416,
1583,1583,6334,2021-10-01 15:13:56.195,-0.2260557810465495,
1584,1584,6338,2021-10-01 15:13:56.199,-0.1906458536783854,
1585,1585,6342,2021-10-01 15:13:56.203,-0.2381579081217448,
1586,1586,6346,2021-10-01 15:13:56.207,-0.2048397064208984,
1587,1587,6350,2021-10-01 15:13:56.211,-0.2302392323811849,
1588,1588,6354,2021-10-01 15:13:56.215,-0.2362155914306641,
1589,1589,6358,2021-10-01 15:13:56.219,-0.1946798960367838,
1590,1590,6362,2021-10-01 15:13:56.223,-0.2314345041910807,
1591,1591,6366,2021-10-01 15:13:56.227,-0.193484624226888,
1592,1592,6370,2021-10-01 15:13:56.231,-0.2161947886149088,
1593,1593,6374,2021-10-01 15:13:56.235,-0.2263545989990234,
1594,1594,6378,2021-10-01 15:13:56.239,-0.1915423075358073,
1595,1595,6382,2021-10-01 15:13:56.243,-0.2348709106445312,
1596,1596,6386,2021-10-01 15:13:56.247,-0.1966222127278646,
1597,1597,6390,2021-10-01 15:13:56.251,-0.2208264668782552,
1598,1598,6394,2021-10-01 15:13:56.255,-0.2341238657633463,
1599,1599,6398,2021-10-01 15:13:56.259,-0.2033456166585286,
1600,1600,6402,2021-10-01 15:13:56.263,-0.244134267171224,
1601,1601,6406,2021-10-01 15:13:56.267,-0.2030467987060547,
1602,1602,6410,2021-10-01 15:13:56.271,-0.2244122823079427,
1603,1603,6414,2021-10-01 15:13:56.275,-0.2344226837158203,
1604,1604,6418,2021-10-01 15:13:56.279,-0.1987139383951823,
1605,1605,6422,2021-10-01 15:13:56.283,-0.2403990427652995,
1606,1606,6426,2021-10-01 15:13:56.287,-0.2042420705159505,
1607,1607,6430,2021-10-01 15:13:56.291,-0.2287451426188151,
1608,1608,6434,2021-10-01 15:13:56.295,-0.2412954966227213,
1609,1609,6438,2021-10-01 15:13:56.299,-0.2064832051595052,
1610,1610,6442,2021-10-01 15:13:56.303,-0.2427895863850911,
1611,1611,6446,2021-10-01 15:13:56.307,-0.1981163024902344,
1612,1612,6450,2021-10-01 15:13:56.311,-0.2178382873535156,
1613,1613,6454,2021-10-01 15:13:56.315,-0.2315839131673177,
1614,1614,6458,2021-10-01 15:13:56.319,-0.2002080281575521,
1615,1615,6462,2021-10-01 15:13:56.323,-0.2418931325276693,
1616,1616,6466,2021-10-01 15:13:56.327,-0.2017021179199219,
1617,1617,6470,2021-10-01 15:13:56.331,-0.2235158284505208,
1618,1618,6474,2021-10-01 15:13:56.335,-0.2299404144287109,
1619,1619,6478,2021-10-01 15:13:56.339,-0.1870600382486979,
1620,1620,6482,2021-10-01 15:13:56.343,-0.2203782399495443,
1621,1621,6486,2021-10-01 15:13:56.347,-0.179290771484375,
1622,1622,6490,2021-10-01 15:13:56.351,-0.200656255086263,
1623,1623,6494,2021-10-01 15:13:56.355,-0.2268028259277344,
1624,1624,6498,2021-10-01 15:13:56.359,-0.2164936065673828,
1625,1625,6502,2021-10-01 15:13:56.363,-0.2747631072998047,
1626,1626,6506,2021-10-01 15:13:56.367,-0.2387555440266927,
1627,1627,6510,2021-10-01 15:13:56.371,-0.2541446685791016,
1628,1628,6514,2021-10-01 15:13:56.375,-0.2542940775553385,
1629,1629,6518,2021-10-01 15:13:56.379,-0.2115631103515625,
1630,1630,6522,2021-10-01 15:13:56.383,-0.2465248107910156,
1631,1631,6526,2021-10-01 15:13:56.387,-0.1994609832763672,
1632,1632,6530,2021-10-01 15:13:56.391,-0.21514892578125,
1633,1633,6534,2021-10-01 15:13:56.395,-0.2241134643554687,
1634,1634,6538,2021-10-01 15:13:56.399,-0.1946798960367838,
1635,1635,6542,2021-10-01 15:13:56.403,-0.2420425415039062,
1636,1636,6546,2021-10-01 15:13:56.407,-0.1994609832763672,
1637,1637,6550,2021-10-01 15:13:56.411,-0.2206770579020182,
1638,1638,6554,2021-10-01 15:13:56.415,-0.2315839131673177,
1639,1639,6558,2021-10-01 15:13:56.419,-0.2175394694010416,
1640,1640,6562,2021-10-01 15:13:56.423,-0.2885087331136068,
1641,1641,6566,2021-10-01 15:13:56.427,-0.2557881673177083,
1642,1642,6570,2021-10-01 15:13:56.431,-0.2102184295654297,
1643,1643,6574,2021-10-01 15:13:56.435,-0.0493049621582031,
1644,1644,6578,2021-10-01 15:13:56.439,0.2372614542643229,
1645,1645,6582,2021-10-01 15:13:56.443,0.4842344919840495,
1646,1646,6586,2021-10-01 15:13:56.447,0.7406202952067058,
1647,1647,6590,2021-10-01 15:13:56.451,0.6739838918050131,
1648,1648,6594,2021-10-01 15:13:56.455,0.2781995137532552,
1649,1649,6598,2021-10-01 15:13:56.459,-0.4525597890218099,
1650,1650,6602,2021-10-01 15:13:56.463,-1.2934335072835288,
1651,1651,6606,2021-10-01 15:13:56.467,-1.7975393931070969,
1652,1652,6610,2021-10-01 15:13:56.471,-1.8595441182454429,
1653,1653,6614,2021-10-01 15:13:56.475,-1.477953592936198,
1654,1654,6618,2021-10-01 15:13:56.479,-0.8722496032714845,
1655,1655,6622,2021-10-01 15:13:56.483,-0.3768094380696615,
1656,1656,6626,2021-10-01 15:13:56.487,0.0245030721028645,
1657,1657,6630,2021-10-01 15:13:56.491,0.1754061381022135,
1658,1658,6634,2021-10-01 15:13:56.495,0.2055867513020833,
1659,1659,6638,2021-10-01 15:13:56.499,0.2088737487792969,
1660,1660,6642,2021-10-01 15:13:56.503,0.114895502726237,
1661,1661,6646,2021-10-01 15:13:56.507,0.1039886474609375,
1662,1662,6650,2021-10-01 15:13:56.511,0.0475120544433593,
1663,1663,6654,2021-10-01 15:13:56.515,0.006573994954427,
1664,1664,6658,2021-10-01 15:13:56.519,0.007171630859375,
1665,1665,6662,2021-10-01 15:13:56.523,-0.0709692637125651,
1666,1666,6666,2021-10-01 15:13:56.527,-0.0679810841878255,
1667,1667,6670,2021-10-01 15:13:56.531,-0.1199754079182942,
1668,1668,6674,2021-10-01 15:13:56.535,-0.1615111033121745,
1669,1669,6678,2021-10-01 15:13:56.539,-0.1495583852132161,
1670,1670,6682,2021-10-01 15:13:56.543,-0.207977294921875,
1671,1671,6686,2021-10-01 15:13:56.547,-0.1837730407714844,
1672,1672,6690,2021-10-01 15:13:56.551,-0.2208264668782552,
1673,1673,6694,2021-10-01 15:13:56.555,-0.2399508158365885,
1674,1674,6698,2021-10-01 15:13:56.559,-0.2124595642089844,
1675,1675,6702,2021-10-01 15:13:56.563,-0.2619139353434245,
1676,1676,6706,2021-10-01 15:13:56.567,-0.222619374593099,
1677,1677,6710,2021-10-01 15:13:56.571,-0.2462259928385416,
1678,1678,6714,2021-10-01 15:13:56.575,-0.258029301961263,
1679,1679,6718,2021-10-01 15:13:56.579,-0.2263545989990234,
1680,1680,6722,2021-10-01 15:13:56.583,-0.265200932820638,
1681,1681,6726,2021-10-01 15:13:56.587,-0.2202288309733073,
1682,1682,6730,2021-10-01 15:13:56.591,-0.2375602722167969,
1683,1683,6734,2021-10-01 15:13:56.595,-0.2442836761474609,
1684,1684,6738,2021-10-01 15:13:56.599,-0.2126089731852213,
1685,1685,6742,2021-10-01 15:13:56.603,-0.2535470326741537,
1686,1686,6746,2021-10-01 15:13:56.607,-0.2117125193277995,
1687,1687,6750,2021-10-01 15:13:56.611,-0.2392037709554036,
1688,1688,6754,2021-10-01 15:13:56.615,-0.2493635813395182,
1689,1689,6758,2021-10-01 15:13:56.619,-0.2163441975911458,
1690,1690,6762,2021-10-01 15:13:56.623,-0.2533976236979167,
1691,1691,6766,2021-10-01 15:13:56.627,-0.2111148834228516,
1692,1692,6770,2021-10-01 15:13:56.631,-0.2294921875,
1693,1693,6774,2021-10-01 15:13:56.635,-0.2427895863850911,
1694,1694,6778,2021-10-01 15:13:56.639,-0.2126089731852213,
1695,1695,6782,2021-10-01 15:13:56.643,-0.2519035339355469,
1696,1696,6786,2021-10-01 15:13:56.647,-0.2155971527099609,
1697,1697,6790,2021-10-01 15:13:56.651,-0.2421919504801432,
1698,1698,6794,2021-10-01 15:13:56.655,-0.2463754018147786,
1699,1699,6798,2021-10-01 15:13:56.659,-0.2141030629475911,
1700,1700,6802,2021-10-01 15:13:56.663,-0.2601210276285807,
1701,1701,6806,2021-10-01 15:13:56.667,-0.2229181925455729,
1702,1702,6810,2021-10-01 15:13:56.671,-0.2560869852701823,
1703,1703,6814,2021-10-01 15:13:56.675,-0.280141830444336,
1704,1704,6818,2021-10-01 15:13:56.679,-0.2493635813395182,
1705,1705,6822,2021-10-01 15:13:56.683,-0.2846240997314453,
1706,1706,6826,2021-10-01 15:13:56.687,-0.2354685465494791,
1707,1707,6830,2021-10-01 15:13:56.691,-0.2427895863850911,
1708,1708,6834,2021-10-01 15:13:56.695,-0.2541446685791016,
1709,1709,6838,2021-10-01 15:13:56.699,-0.2205276489257812,
1710,1710,6842,2021-10-01 15:13:56.703,-0.2539952596028646,
1711,1711,6846,2021-10-01 15:13:56.707,-0.200656255086263,
1712,1712,6850,2021-10-01 15:13:56.711,-0.2088737487792969,
1713,1713,6854,2021-10-01 15:13:56.715,-0.2103678385416666,
1714,1714,6858,2021-10-01 15:13:56.719,-0.1893011728922526,
1715,1715,6862,2021-10-01 15:13:56.723,-0.2321815490722656,
1716,1716,6866,2021-10-01 15:13:56.727,-0.1876576741536458,
1717,1717,6870,2021-10-01 15:13:56.731,-0.1976680755615234,
1718,1718,6874,2021-10-01 15:13:56.735,-0.2036444346110026,
1719,1719,6878,2021-10-01 15:13:56.739,-0.1691309611002604,
1720,1720,6882,2021-10-01 15:13:56.743,-0.2037938435872396,
1721,1721,6886,2021-10-01 15:13:56.747,-0.1559829711914062,
1722,1722,6890,2021-10-01 15:13:56.751,-0.1788425445556641,
1723,1723,6894,2021-10-01 15:13:56.755,-0.2037938435872396,
1724,1724,6898,2021-10-01 15:13:56.759,-0.1876576741536458,
1725,1725,6902,2021-10-01 15:13:56.763,-0.2433872222900391,
1726,1726,6906,2021-10-01 15:13:56.767,-0.2063337961832682,
1727,1727,6910,2021-10-01 15:13:56.771,-0.2263545989990234,
1728,1728,6914,2021-10-01 15:13:56.775,-0.2327791849772135,
1729,1729,6918,2021-10-01 15:13:56.779,-0.1946798960367838,
1730,1730,6922,2021-10-01 15:13:56.783,-0.2335262298583984,
1731,1731,6926,2021-10-01 15:13:56.787,-0.2045408884684245,
1732,1732,6930,2021-10-01 15:13:56.791,-0.2302392323811849,
1733,1733,6934,2021-10-01 15:13:56.795,-0.2342732747395833,
1734,1734,6938,2021-10-01 15:13:56.799,-0.1951281229654948,
1735,1735,6942,2021-10-01 15:13:56.803,-0.2320321400960286,
1736,1736,6946,2021-10-01 15:13:56.807,-0.1888529459635416,
1737,1737,6950,2021-10-01 15:13:56.811,-0.2115631103515625,
1738,1738,6954,2021-10-01 15:13:56.815,-0.2236652374267578,
1739,1739,6958,2021-10-01 15:13:56.819,-0.2002080281575521,
1740,1740,6962,2021-10-01 15:13:56.823,-0.2495129903157552,
1741,1741,6966,2021-10-01 15:13:56.827,-0.2058855692545573,
1742,1742,6970,2021-10-01 15:13:56.831,-0.2276992797851562,
1743,1743,6974,2021-10-01 15:13:56.835,-0.2418931325276693,
1744,1744,6978,2021-10-01 15:13:56.839,-0.2141030629475911,
1745,1745,6982,2021-10-01 15:13:56.843,-0.2595233917236328,
1746,1746,6986,2021-10-01 15:13:56.847,-0.2190335591634115,
1747,1747,6990,2021-10-01 15:13:56.851,-0.2315839131673177,
1748,1748,6994,2021-10-01 15:13:56.855,-0.2317333221435547,
1749,1749,6998,2021-10-01 15:13:56.859,-0.193335215250651,
1750,1750,7002,2021-10-01 15:13:56.863,-0.2375602722167969,
1751,1751,7006,2021-10-01 15:13:56.867,-0.2155971527099609,
1752,1752,7010,2021-10-01 15:13:56.871,-0.2429389953613281,
1753,1753,7014,2021-10-01 15:13:56.875,-0.2474212646484375,
1754,1754,7018,2021-10-01 15:13:56.879,-0.2063337961832682,
1755,1755,7022,2021-10-01 15:13:56.883,-0.2448813120524088,
1756,1756,7026,2021-10-01 15:13:56.887,-0.2018515268961588,
1757,1757,7030,2021-10-01 15:13:56.891,-0.2236652374267578,
1758,1758,7034,2021-10-01 15:13:56.895,-0.2327791849772135,
1759,1759,7038,2021-10-01 15:13:56.899,-0.1966222127278646,
1760,1760,7042,2021-10-01 15:13:56.903,-0.2374108632405599,
1761,1761,7046,2021-10-01 15:13:56.907,-0.1999092102050781,
1762,1762,7050,2021-10-01 15:13:56.911,-0.2209758758544922,
1763,1763,7054,2021-10-01 15:13:56.915,-0.2287451426188151,
1764,1764,7058,2021-10-01 15:13:56.919,-0.1925881703694661,
1765,1765,7062,2021-10-01 15:13:56.923,-0.2326297760009766,
1766,1766,7066,2021-10-01 15:13:56.927,-0.1966222127278646,
1767,1767,7070,2021-10-01 15:13:56.931,-0.2179876963297526,
1768,1768,7074,2021-10-01 15:13:56.935,-0.2290439605712891,
1769,1769,7078,2021-10-01 15:13:56.939,-0.1931858062744141,
1770,1770,7082,2021-10-01 15:13:56.943,-0.2398014068603516,
1771,1771,7086,2021-10-01 15:13:56.947,-0.2052879333496094,
1772,1772,7090,2021-10-01 15:13:56.951,-0.2294921875,
1773,1773,7094,2021-10-01 15:13:56.955,-0.2396519978841146,
1774,1774,7098,2021-10-01 15:13:56.959,-0.2111148834228516,
1775,1775,7102,2021-10-01 15:13:56.963,-0.2505588531494141,
1776,1776,7106,2021-10-01 15:13:56.967,-0.2066326141357422,
1777,1777,7110,2021-10-01 15:13:56.971,-0.2208264668782552,
1778,1778,7114,2021-10-01 15:13:56.975,-0.2303886413574219,
1779,1779,7118,2021-10-01 15:13:56.979,-0.1713720957438151,
1780,1780,7122,2021-10-01 15:13:56.983,-0.2256075541178385,
1781,1781,7126,2021-10-01 15:13:56.987,-0.2239640553792318,
1782,1782,7130,2021-10-01 15:13:56.991,-0.2191829681396484,
1783,1783,7134,2021-10-01 15:13:56.995,-0.2450307210286458,
1784,1784,7138,2021-10-01 15:13:56.999,-0.1949787139892578,
1785,1785,7142,2021-10-01 15:13:57.003,-0.2299404144287109,
1786,1786,7146,2021-10-01 15:13:57.007,-0.2126089731852213,
1787,1787,7150,2021-10-01 15:13:57.011,-0.1943810780843099,
1788,1788,7154,2021-10-01 15:13:57.015,-0.2178382873535156,
1789,1789,7158,2021-10-01 15:13:57.019,-0.1674874623616536,
1790,1790,7162,2021-10-01 15:13:57.023,-0.2178382873535156,
1791,1791,7166,2021-10-01 15:13:57.027,-0.2318827311197916,
1792,1792,7170,2021-10-01 15:13:57.031,-0.2475706736246745,
1793,1793,7174,2021-10-01 15:13:57.035,-0.2910486857096354,
1794,1794,7178,2021-10-01 15:13:57.039,-0.2387555440266927,
1795,1795,7182,2021-10-01 15:13:57.043,-0.2699820200602214,
1796,1796,7186,2021-10-01 15:13:57.047,-0.2401002248128255,
1797,1797,7190,2021-10-01 15:13:57.051,-0.2173900604248047,
1798,1798,7194,2021-10-01 15:13:57.055,-0.2359167734781901,
1799,1799,7198,2021-10-01 15:13:57.059,-0.1876576741536458,
1800,1800,7202,2021-10-01 15:13:57.063,-0.2205276489257812,
1801,1801,7206,2021-10-01 15:13:57.067,-0.1996103922526041,
1802,1802,7210,2021-10-01 15:13:57.071,-0.1945304870605469,
1803,1803,7214,2021-10-01 15:13:57.075,-0.2274004618326823,
1804,1804,7218,2021-10-01 15:13:57.079,-0.1825777689615885,
1805,1805,7222,2021-10-01 15:13:57.083,-0.2253087361653646,
1806,1806,7226,2021-10-01 15:13:57.087,-0.2158959706624349,
1807,1807,7230,2021-10-01 15:13:57.091,-0.2348709106445312,
1808,1808,7234,2021-10-01 15:13:57.095,-0.287014643351237,
1809,1809,7238,2021-10-01 15:13:57.099,-0.229342778523763,
1810,1810,7242,2021-10-01 15:13:57.103,-0.1670392354329427,
1811,1811,7246,2021-10-01 15:13:57.107,0.0563271840413411,
1812,1812,7250,2021-10-01 15:13:57.111,0.3122647603352865,
1813,1813,7254,2021-10-01 15:13:57.115,0.5318959554036459,
1814,1814,7258,2021-10-01 15:13:57.119,0.6825002034505209,
1815,1815,7262,2021-10-01 15:13:57.123,0.4761664072672527,
1816,1816,7266,2021-10-01 15:13:57.127,-0.0077692667643229,
1817,1817,7270,2021-10-01 15:13:57.131,-0.7455507914225261,
1818,1818,7274,2021-10-01 15:13:57.135,-1.4367167154947915,
1819,1819,7278,2021-10-01 15:13:57.139,-1.7180538177490237,
1820,1820,7282,2021-10-01 15:13:57.143,-1.6387176513671875,
1821,1821,7286,2021-10-01 15:13:57.147,-1.1997540791829429,
1822,1822,7290,2021-10-01 15:13:57.151,-0.6687545776367189,
1823,1823,7294,2021-10-01 15:13:57.155,-0.2468236287434896,
1824,1824,7298,2021-10-01 15:13:57.159,0.0779914855957031,
1825,1825,7302,2021-10-01 15:13:57.163,0.1628557840983073,
1826,1826,7306,2021-10-01 15:13:57.167,0.2028973897298177,
1827,1827,7310,2021-10-01 15:13:57.171,0.1788425445556641,
1828,1828,7314,2021-10-01 15:13:57.175,0.0953229268391927,
1829,1829,7318,2021-10-01 15:13:57.179,0.0865077972412109,
1830,1830,7322,2021-10-01 15:13:57.183,-0.0053787231445312,
1831,1831,7326,2021-10-01 15:13:57.187,-0.0218137105305989,
1832,1832,7330,2021-10-01 15:13:57.191,-0.0383981068929036,
1833,1833,7334,2021-10-01 15:13:57.195,-0.0945758819580078,
1834,1834,7338,2021-10-01 15:13:57.199,-0.0821749369303385,
1835,1835,7342,2021-10-01 15:13:57.203,-0.1447772979736328,
1836,1836,7346,2021-10-01 15:13:57.207,-0.1543394724527995,
1837,1837,7350,2021-10-01 15:13:57.211,-0.1630051930745442,
1838,1838,7354,2021-10-01 15:13:57.215,-0.2093219757080078,
1839,1839,7358,2021-10-01 15:13:57.219,-0.1807848612467448,
1840,1840,7362,2021-10-01 15:13:57.223,-0.2329285939534505,
1841,1841,7366,2021-10-01 15:13:57.227,-0.2285957336425781,
1842,1842,7370,2021-10-01 15:13:57.231,-0.2318827311197916,
1843,1843,7374,2021-10-01 15:13:57.235,-0.2634080251057943,
1844,1844,7378,2021-10-01 15:13:57.239,-0.2272510528564453,
1845,1845,7382,2021-10-01 15:13:57.243,-0.2686373392740885,
1846,1846,7386,2021-10-01 15:13:57.247,-0.2487659454345703,
1847,1847,7390,2021-10-01 15:13:57.251,-0.2378590901692708,
1848,1848,7394,2021-10-01 15:13:57.255,-0.2596728006998698,
1849,1849,7398,2021-10-01 15:13:57.259,-0.2164936065673828,
1850,1850,7402,2021-10-01 15:13:57.263,-0.2535470326741537,
1851,1851,7406,2021-10-01 15:13:57.267,-0.2294921875,
1852,1852,7410,2021-10-01 15:13:57.271,-0.2178382873535156,
1853,1853,7414,2021-10-01 15:13:57.275,-0.2418931325276693,
1854,1854,7418,2021-10-01 15:13:57.279,-0.2052879333496094,
1855,1855,7422,2021-10-01 15:13:57.283,-0.2475706736246745,
1856,1856,7426,2021-10-01 15:13:57.287,-0.2248605092366536,
1857,1857,7430,2021-10-01 15:13:57.291,-0.2199300130208333,
1858,1858,7434,2021-10-01 15:13:57.295,-0.2469730377197266,
1859,1859,7438,2021-10-01 15:13:57.299,-0.2042420705159505,
1860,1860,7442,2021-10-01 15:13:57.303,-0.2451801300048828,
1861,1861,7446,2021-10-01 15:13:57.307,-0.2272510528564453,
1862,1862,7450,2021-10-01 15:13:57.311,-0.2247111002604166,
1863,1863,7454,2021-10-01 15:13:57.315,-0.2487659454345703,
1864,1864,7458,2021-10-01 15:13:57.319,-0.2123101552327474,
1865,1865,7462,2021-10-01 15:13:57.323,-0.2562363942464193,
1866,1866,7466,2021-10-01 15:13:57.327,-0.2403990427652995,
1867,1867,7470,2021-10-01 15:13:57.331,-0.236663818359375,
1868,1868,7474,2021-10-01 15:13:57.335,-0.2649021148681641,
1869,1869,7478,2021-10-01 15:13:57.339,-0.222320556640625,
1870,1870,7482,2021-10-01 15:13:57.343,-0.2631092071533203,
1871,1871,7486,2021-10-01 15:13:57.347,-0.2484671274820963,
1872,1872,7490,2021-10-01 15:13:57.351,-0.2420425415039062,
1873,1873,7494,2021-10-01 15:13:57.355,-0.2622127532958985,
1874,1874,7498,2021-10-01 15:13:57.359,-0.2200794219970703,
1875,1875,7502,2021-10-01 15:13:57.363,-0.2568340301513672,
1876,1876,7506,2021-10-01 15:13:57.367,-0.2378590901692708,
1877,1877,7510,2021-10-01 15:13:57.371,-0.222320556640625,
1878,1878,7514,2021-10-01 15:13:57.375,-0.2430884043375651,
1879,1879,7518,2021-10-01 15:13:57.379,-0.193932851155599,
1880,1880,7522,2021-10-01 15:13:57.383,-0.2238146464029948,
1881,1881,7526,2021-10-01 15:13:57.387,-0.200656255086263,
1882,1882,7530,2021-10-01 15:13:57.391,-0.1893011728922526,
1883,1883,7534,2021-10-01 15:13:57.395,-0.2193323771158854,
1884,1884,7538,2021-10-01 15:13:57.399,-0.1773484547932942,
1885,1885,7542,2021-10-01 15:13:57.403,-0.214999516805013,
1886,1886,7546,2021-10-01 15:13:57.407,-0.1909446716308594,
1887,1887,7550,2021-10-01 15:13:57.411,-0.1752567291259766,
1888,1888,7554,2021-10-01 15:13:57.415,-0.2014032999674479,
1889,1889,7558,2021-10-01 15:13:57.419,-0.1607640584309896,
1890,1890,7562,2021-10-01 15:13:57.423,-0.2085749308268229,
1891,1891,7566,2021-10-01 15:13:57.427,-0.1979668935139974,
1892,1892,7570,2021-10-01 15:13:57.431,-0.1949787139892578,
1893,1893,7574,2021-10-01 15:13:57.435,-0.2262051900227865,
1894,1894,7578,2021-10-01 15:13:57.439,-0.1875082651774088,
1895,1895,7582,2021-10-01 15:13:57.443,-0.2266534169514974,
1896,1896,7586,2021-10-01 15:13:57.447,-0.208276112874349,
1897,1897,7590,2021-10-01 15:13:57.451,-0.2070808410644531,
1898,1898,7594,2021-10-01 15:13:57.455,-0.2405484517415365,
1899,1899,7598,2021-10-01 15:13:57.459,-0.200506846110026,
1900,1900,7602,2021-10-01 15:13:57.463,-0.2401002248128255,
1901,1901,7606,2021-10-01 15:13:57.467,-0.2187347412109375,
1902,1902,7610,2021-10-01 15:13:57.471,-0.2135054270426432,
1903,1903,7614,2021-10-01 15:13:57.475,-0.2392037709554036,
1904,1904,7618,2021-10-01 15:13:57.479,-0.1981163024902344,
1905,1905,7622,2021-10-01 15:13:57.483,-0.2426401774088541,
1906,1906,7626,2021-10-01 15:13:57.487,-0.2321815490722656,
1907,1907,7630,2021-10-01 15:13:57.491,-0.2233664194742838,
1908,1908,7634,2021-10-01 15:13:57.495,-0.2418931325276693,
1909,1909,7638,2021-10-01 15:13:57.499,-0.1919905344645182,
1910,1910,7642,2021-10-01 15:13:57.503,-0.2401002248128255,
1911,1911,7646,2021-10-01 15:13:57.507,-0.2251593271891276,
1912,1912,7650,2021-10-01 15:13:57.511,-0.2170912424723307,
1913,1913,7654,2021-10-01 15:13:57.515,-0.2459271748860677,
1914,1914,7658,2021-10-01 15:13:57.519,-0.2051385243733724,
1915,1915,7662,2021-10-01 15:13:57.523,-0.2450307210286458,
1916,1916,7666,2021-10-01 15:13:57.527,-0.2229181925455729,
1917,1917,7670,2021-10-01 15:13:57.531,-0.2163441975911458,
1918,1918,7674,2021-10-01 15:13:57.535,-0.2480189005533854,
1919,1919,7678,2021-10-01 15:13:57.539,-0.2057361602783203,
1920,1920,7682,2021-10-01 15:13:57.543,-0.2475706736246745,
1921,1921,7686,2021-10-01 15:13:57.547,-0.2278486887613932,
1922,1922,7690,2021-10-01 15:13:57.551,-0.2175394694010416,
1923,1923,7694,2021-10-01 15:13:57.555,-0.2457777659098307,
1924,1924,7698,2021-10-01 15:13:57.559,-0.2034950256347656,
1925,1925,7702,2021-10-01 15:13:57.563,-0.2377096811930338,
1926,1926,7706,2021-10-01 15:13:57.567,-0.215447743733724,
1927,1927,7710,2021-10-01 15:13:57.571,-0.2027479807535807,
1928,1928,7714,2021-10-01 15:13:57.575,-0.2348709106445312,
1929,1929,7718,2021-10-01 15:13:57.579,-0.1958751678466797,
1930,1930,7722,2021-10-01 15:13:57.583,-0.2332274119059245,
1931,1931,7726,2021-10-01 15:13:57.587,-0.2105172475179036,
1932,1932,7730,2021-10-01 15:13:57.591,-0.2034950256347656,
1933,1933,7734,2021-10-01 15:13:57.595,-0.2320321400960286,
1934,1934,7738,2021-10-01 15:13:57.599,-0.1867612202962239,
1935,1935,7742,2021-10-01 15:13:57.603,-0.2303886413574219,
1936,1936,7746,2021-10-01 15:13:57.607,-0.2178382873535156,
1937,1937,7750,2021-10-01 15:13:57.611,-0.2164936065673828,
1938,1938,7754,2021-10-01 15:13:57.615,-0.2471224466959635,
1939,1939,7758,2021-10-01 15:13:57.619,-0.1984151204427083,
1940,1940,7762,2021-10-01 15:13:57.623,-0.2324803670247396,
1941,1941,7766,2021-10-01 15:13:57.627,-0.2166430155436198,
1942,1942,7770,2021-10-01 15:13:57.631,-0.2170912424723307,
1943,1943,7774,2021-10-01 15:13:57.635,-0.2447319030761719,
1944,1944,7778,2021-10-01 15:13:57.639,-0.1940822601318359,
1945,1945,7782,2021-10-01 15:13:57.643,-0.2259063720703125,
1946,1946,7786,2021-10-01 15:13:57.647,-0.2066326141357422,
1947,1947,7790,2021-10-01 15:13:57.651,-0.2043914794921875,
1948,1948,7794,2021-10-01 15:13:57.655,-0.2342732747395833,
1949,1949,7798,2021-10-01 15:13:57.659,-0.1858647664388021,
1950,1950,7802,2021-10-01 15:13:57.663,-0.2181371053059896,
1951,1951,7806,2021-10-01 15:13:57.667,-0.1961739857991536,
1952,1952,7810,2021-10-01 15:13:57.671,-0.1942316691080729,
1953,1953,7814,2021-10-01 15:13:57.675,-0.2345720926920573,
1954,1954,7818,2021-10-01 15:13:57.679,-0.208126703898112,
1955,1955,7822,2021-10-01 15:13:57.683,-0.2704302469889323,
1956,1956,7826,2021-10-01 15:13:57.687,-0.251305898030599,
1957,1957,7830,2021-10-01 15:13:57.691,-0.2362155914306641,
1958,1958,7834,2021-10-01 15:13:57.695,-0.2590751647949219,
1959,1959,7838,2021-10-01 15:13:57.699,-0.2103678385416666,
1960,1960,7842,2021-10-01 15:13:57.703,-0.2430884043375651,
1961,1961,7846,2021-10-01 15:13:57.707,-0.2209758758544922,
1962,1962,7850,2021-10-01 15:13:57.711,-0.2108160654703776,
1963,1963,7854,2021-10-01 15:13:57.715,-0.236663818359375,
1964,1964,7858,2021-10-01 15:13:57.719,-0.1918411254882812,
1965,1965,7862,2021-10-01 15:13:57.723,-0.2314345041910807,
1966,1966,7866,2021-10-01 15:13:57.727,-0.2175394694010416,
1967,1967,7870,2021-10-01 15:13:57.731,-0.2069314320882161,
1968,1968,7874,2021-10-01 15:13:57.735,-0.2345720926920573,
1969,1969,7878,2021-10-01 15:13:57.739,-0.2021503448486328,
1970,1970,7882,2021-10-01 15:13:57.743,-0.2640056610107422,
1971,1971,7886,2021-10-01 15:13:57.747,-0.2569834391276042,
1972,1972,7890,2021-10-01 15:13:57.751,-0.2114137013753255,
1973,1973,7894,2021-10-01 15:13:57.755,-0.0987593332926432,
1974,1974,7898,2021-10-01 15:13:57.759,0.1824283599853516,
1975,1975,7902,2021-10-01 15:13:57.763,0.4208850860595703,
1976,1976,7906,2021-10-01 15:13:57.767,0.682201385498047,
1977,1977,7910,2021-10-01 15:13:57.771,0.7141749064127605,
1978,1978,7914,2021-10-01 15:13:57.775,0.3791999816894532,
1979,1979,7918,2021-10-01 15:13:57.779,-0.2705796559651693,
1980,1980,7922,2021-10-01 15:13:57.783,-1.1211649576822915,
1981,1981,7926,2021-10-01 15:13:57.787,-1.7047564188639326,
1982,1982,7930,2021-10-01 15:13:57.791,-1.8496831258138025,
1983,1983,7934,2021-10-01 15:13:57.795,-1.5888150533040366,
1984,1984,7938,2021-10-01 15:13:57.799,-1.01194699605306,
1985,1985,7942,2021-10-01 15:13:57.803,-0.4985777537027995,
1986,1986,7946,2021-10-01 15:13:57.807,-0.0654411315917968,
1987,1987,7950,2021-10-01 15:13:57.811,0.1619593302408854,
1988,1988,7954,2021-10-01 15:13:57.815,0.1978174845377604,
1989,1989,7958,2021-10-01 15:13:57.819,0.2232170104980469,
1990,1990,7962,2021-10-01 15:13:57.823,0.1341692606608073,
1991,1991,7966,2021-10-01 15:13:57.827,0.1039886474609375,
1992,1992,7970,2021-10-01 15:13:57.831,0.0763479868570963,
1993,1993,7974,2021-10-01 15:13:57.835,0.0082174936930338,
1994,1994,7978,2021-10-01 15:13:57.839,0.0158373514811197,
1995,1995,7982,2021-10-01 15:13:57.843,-0.0603612263997395,
1996,1996,7986,2021-10-01 15:13:57.847,-0.0729115804036458,
1997,1997,7990,2021-10-01 15:13:57.851,-0.0963687896728515,
1998,1998,7994,2021-10-01 15:13:57.855,-0.1597181955973307,
1999,1999,7998,2021-10-01 15:13:57.859,-0.1389503479003906,
2000,2000,8002,2021-10-01 15:13:57.863,-0.1990127563476562,
2001,2001,8006,2021-10-01 15:13:57.867,-0.1970704396565755,
2002,2002,8010,2021-10-01 15:13:57.871,-0.2045408884684245,
2003,2003,8014,2021-10-01 15:13:57.875,-0.2481683095296224,
2004,2004,8018,2021-10-01 15:13:57.879,-0.2141030629475911,
2005,2005,8022,2021-10-01 15:13:57.883,-0.2569834391276042,
2006,2006,8026,2021-10-01 15:13:57.887,-0.2362155914306641,
2007,2007,8030,2021-10-01 15:13:57.891,-0.2329285939534505,
2008,2008,8034,2021-10-01 15:13:57.895,-0.2647527058919271,
2009,2009,8038,2021-10-01 15:13:57.899,-0.2190335591634115,
2010,2010,8042,2021-10-01 15:13:57.903,-0.2611668904622396,
2011,2011,8046,2021-10-01 15:13:57.907,-0.2427895863850911,
2012,2012,8050,2021-10-01 15:13:57.911,-0.2332274119059245,
2013,2013,8054,2021-10-01 15:13:57.915,-0.2542940775553385,
2014,2014,8058,2021-10-01 15:13:57.919,-0.2094713846842448,
2015,2015,8062,2021-10-01 15:13:57.923,-0.2487659454345703,
2016,2016,8066,2021-10-01 15:13:57.927,-0.2317333221435547,
2017,2017,8070,2021-10-01 15:13:57.931,-0.2241134643554687,
2018,2018,8074,2021-10-01 15:13:57.935,-0.2450307210286458,
2019,2019,8078,2021-10-01 15:13:57.939,-0.1963233947753906,
2020,2020,8082,2021-10-01 15:13:57.943,-0.2345720926920573,
2021,2021,8086,2021-10-01 15:13:57.947,-0.2205276489257812,
2022,2022,8090,2021-10-01 15:13:57.951,-0.215298334757487,
2023,2023,8094,2021-10-01 15:13:57.955,-0.2504094441731771,
2024,2024,8098,2021-10-01 15:13:57.959,-0.2057361602783203,
2025,2025,8102,2021-10-01 15:13:57.963,-0.251455307006836,
2026,2026,8106,2021-10-01 15:13:57.967,-0.2384567260742187,
2027,2027,8110,2021-10-01 15:13:57.971,-0.2336756388346354,
2028,2028,8114,2021-10-01 15:13:57.975,-0.2599716186523438,
2029,2029,8118,2021-10-01 15:13:57.979,-0.2048397064208984,
2030,2030,8122,2021-10-01 15:13:57.983,-0.2429389953613281,
2031,2031,8126,2021-10-01 15:13:57.987,-0.2640056610107422,
2032,2032,8130,2021-10-01 15:13:57.991,-0.2411460876464844,
2033,2033,8134,2021-10-01 15:13:57.995,-0.2843252817789714,
2034,2034,8138,2021-10-01 15:13:57.999,-0.2469730377197266,
2035,2035,8142,2021-10-01 15:13:58.003,-0.272820790608724,
2036,2036,8146,2021-10-01 15:13:58.007,-0.272820790608724,
2037,2037,8150,2021-10-01 15:13:58.011,-0.2250099182128906,
2038,2038,8154,2021-10-01 15:13:58.015,-0.2568340301513672,
2039,2039,8158,2021-10-01 15:13:58.019,-0.2105172475179036,
2040,2040,8162,2021-10-01 15:13:58.023,-0.2300898234049479,
2041,2041,8166,2021-10-01 15:13:58.027,-0.2318827311197916,
2042,2042,8170,2021-10-01 15:13:58.031,-0.1951281229654948,
2043,2043,8174,2021-10-01 15:13:58.035,-0.2335262298583984,
2044,2044,8178,2021-10-01 15:13:58.039,-0.1891517639160156,
2045,2045,8182,2021-10-01 15:13:58.043,-0.2102184295654297,
2046,2046,8186,2021-10-01 15:13:58.047,-0.2144018809000651,
