,Unnamed: 0,Tick Time,RTC Time,ECG,marker
0,0,74,2021-10-08 17:14:03.845,-0.3255621592203776,
1,1,78,2021-10-08 17:14:03.849,-0.2692349751790365,
2,2,82,2021-10-08 17:14:03.853,-0.3475252787272135,
3,3,86,2021-10-08 17:14:03.857,-0.4819933573404948,
4,4,90,2021-10-08 17:14:03.861,-0.0333182017008463,
5,5,94,2021-10-08 17:14:03.865,-0.2779006958007813,
6,6,98,2021-10-08 17:14:03.869,-0.1679356892903646,
7,7,102,2021-10-08 17:14:03.873,-0.2387555440266927,
8,8,106,2021-10-08 17:14:03.877,-0.4210344950358073,
9,9,110,2021-10-08 17:14:03.881,-0.1671886444091797,
10,10,114,2021-10-08 17:14:03.885,-0.4471810658772787,
11,11,118,2021-10-08 17:14:03.889,-0.121917724609375,
12,12,122,2021-10-08 17:14:03.893,-0.0558789571126302,
13,13,126,2021-10-08 17:14:03.897,-0.2532482147216797,
14,14,130,2021-10-08 17:14:03.901,-0.0349617004394531,
15,15,134,2021-10-08 17:14:03.905,-0.3618685404459635,
16,16,138,2021-10-08 17:14:03.909,-0.257879892985026,
17,17,142,2021-10-08 17:14:03.913,-0.2155971527099609,
18,18,146,2021-10-08 17:14:03.917,-0.2466742197672526,
19,19,150,2021-10-08 17:14:03.921,0.0629011789957682,
20,20,154,2021-10-08 17:14:03.925,-0.2741654713948568,
21,21,158,2021-10-08 17:14:03.929,-0.1570288340250651,
22,22,162,2021-10-08 17:14:03.933,-0.1782449086507161,
23,23,166,2021-10-08 17:14:03.937,-0.3974278767903646,
24,24,170,2021-10-08 17:14:03.941,-0.0791867574055989,
25,25,174,2021-10-08 17:14:03.945,-0.251455307006836,
26,26,178,2021-10-08 17:14:03.949,-0.0705210367838541,
27,27,182,2021-10-08 17:14:03.953,-0.1231129964192708,
28,28,186,2021-10-08 17:14:03.957,-0.3318373362223307,
29,29,190,2021-10-08 17:14:03.961,-0.0748538970947265,
30,30,194,2021-10-08 17:14:03.965,-0.4355271657307943,
31,31,198,2021-10-08 17:14:03.969,-0.2490647633870443,
32,32,202,2021-10-08 17:14:03.973,-0.1156425476074218,
33,33,206,2021-10-08 17:14:03.977,-0.2456283569335937,
34,34,210,2021-10-08 17:14:03.981,-0.0164349873860677,
35,35,214,2021-10-08 17:14:03.985,-0.3780047098795573,
36,36,218,2021-10-08 17:14:03.989,-0.2548917134602865,
37,37,222,2021-10-08 17:14:03.993,-0.3146553039550782,
38,38,226,2021-10-08 17:14:03.997,-0.358880360921224,
39,39,230,2021-10-08 17:14:04.001,0.0442250569661458,
40,40,234,2021-10-08 17:14:04.005,-0.2732690175374349,
41,41,238,2021-10-08 17:14:04.009,-0.1824283599853516,
42,42,242,2021-10-08 17:14:04.013,-0.2348709106445312,
43,43,246,2021-10-08 17:14:04.017,-0.430746078491211,
44,44,250,2021-10-08 17:14:04.021,-0.1779460906982422,
45,45,254,2021-10-08 17:14:04.025,-0.3403536478678385,
46,46,258,2021-10-08 17:14:04.029,-0.0944264729817708,
47,47,262,2021-10-08 17:14:04.033,-0.1153437296549479,
48,48,266,2021-10-08 17:14:04.037,-0.3233210245768229,
49,49,270,2021-10-08 17:14:04.041,-0.0739574432373047,
50,50,274,2021-10-08 17:14:04.045,-0.4068406422932943,
51,51,278,2021-10-08 17:14:04.049,-0.286566416422526,
52,52,282,2021-10-08 17:14:04.053,-0.1607640584309896,
53,53,286,2021-10-08 17:14:04.057,-0.2315839131673177,
54,54,290,2021-10-08 17:14:04.061,0.0286865234375,
55,55,294,2021-10-08 17:14:04.065,-0.3361701965332032,
56,56,298,2021-10-08 17:14:04.069,-0.2172406514485677,
57,57,302,2021-10-08 17:14:04.073,-0.272671381632487,
58,58,306,2021-10-08 17:14:04.077,-0.4134146372477214,
59,59,310,2021-10-08 17:14:04.081,0.0192737579345703,
60,60,314,2021-10-08 17:14:04.085,-0.2384567260742187,
61,61,318,2021-10-08 17:14:04.089,-0.1337210337320963,
62,62,322,2021-10-08 17:14:04.093,-0.2027479807535807,
63,63,326,2021-10-08 17:14:04.097,-0.3845787048339844,
64,64,330,2021-10-08 17:14:04.101,-0.1476160685221354,
65,65,334,2021-10-08 17:14:04.105,-0.4338836669921875,
66,66,338,2021-10-08 17:14:04.109,-0.1265494028727213,
67,67,342,2021-10-08 17:14:04.113,-0.0817267100016276,
68,68,346,2021-10-08 17:14:04.117,-0.2850723266601563,
69,69,350,2021-10-08 17:14:04.121,-0.064245859781901,
70,70,354,2021-10-08 17:14:04.125,-0.4025077819824219,
71,71,358,2021-10-08 17:14:04.129,-0.3116671244303385,
72,72,362,2021-10-08 17:14:04.133,-0.2402496337890625,
73,73,366,2021-10-08 17:14:04.137,-0.2539952596028646,
74,74,370,2021-10-08 17:14:04.141,0.0440756479899088,
75,75,374,2021-10-08 17:14:04.145,-0.3076330820719401,
76,76,378,2021-10-08 17:14:04.149,-0.1884047190348307,
77,77,382,2021-10-08 17:14:04.153,-0.2108160654703776,
78,78,386,2021-10-08 17:14:04.157,-0.415805180867513,
79,79,390,2021-10-08 17:14:04.161,-0.0839678446451823,
80,80,394,2021-10-08 17:14:04.165,-0.2566846211751302,
81,81,398,2021-10-08 17:14:04.169,-0.0885995229085286,
82,82,402,2021-10-08 17:14:04.173,-0.1553853352864583,
83,83,406,2021-10-08 17:14:04.177,-0.35858154296875,
84,84,410,2021-10-08 17:14:04.181,-0.1099650065104166,
85,85,414,2021-10-08 17:14:04.185,-0.4577891031901042,
86,86,418,2021-10-08 17:14:04.189,-0.1957257588704427,
87,87,422,2021-10-08 17:14:04.193,-0.0968170166015625,
88,88,426,2021-10-08 17:14:04.197,-0.2626609802246094,
89,89,430,2021-10-08 17:14:04.201,-0.0419839223225911,
90,90,434,2021-10-08 17:14:04.205,-0.3859233856201172,
91,91,438,2021-10-08 17:14:04.209,-0.2677408854166667,
92,92,442,2021-10-08 17:14:04.213,-0.3140576680501302,
93,93,446,2021-10-08 17:14:04.217,-0.330343246459961,
94,94,450,2021-10-08 17:14:04.221,0.0924841562906901,
95,95,454,2021-10-08 17:14:04.225,-0.2242628733317057,
96,96,458,2021-10-08 17:14:04.229,-0.1618099212646484,
97,97,462,2021-10-08 17:14:04.233,-0.2185853322347005,
98,98,466,2021-10-08 17:14:04.237,-0.416103998819987,
99,99,470,2021-10-08 17:14:04.241,-0.1405938466389974,
100,100,474,2021-10-08 17:14:04.245,-0.3122647603352865,
101,101,478,2021-10-08 17:14:04.249,-0.0933806101481119,
102,102,482,2021-10-08 17:14:04.253,-0.1266988118489583,
103,103,486,2021-10-08 17:14:04.257,-0.3399054209391276,
104,104,490,2021-10-08 17:14:04.261,-0.0899442036946614,
105,105,494,2021-10-08 17:14:04.265,-0.4294013977050782,
106,106,498,2021-10-08 17:14:04.269,-0.3024037679036458,
107,107,502,2021-10-08 17:14:04.273,-0.1694297790527344,
108,108,506,2021-10-08 17:14:04.277,-0.2405484517415365,
109,109,510,2021-10-08 17:14:04.281,0.0246524810791015,
110,110,514,2021-10-08 17:14:04.285,-0.3387101491292318,
111,111,518,2021-10-08 17:14:04.289,-0.2196311950683594,
112,112,522,2021-10-08 17:14:04.293,-0.2808888753255208,
113,113,526,2021-10-08 17:14:04.297,-0.3918997446695964,
114,114,530,2021-10-08 17:14:04.301,0.0375016530354817,
115,115,534,2021-10-08 17:14:04.305,-0.2408472696940104,
116,116,538,2021-10-08 17:14:04.309,-0.1458231608072916,
117,117,542,2021-10-08 17:14:04.313,-0.2269522349039713,
118,118,546,2021-10-08 17:14:04.317,-0.438067118326823,
119,119,550,2021-10-08 17:14:04.321,-0.2129077911376953,
120,120,554,2021-10-08 17:14:04.325,-0.4500198364257813,
121,121,558,2021-10-08 17:14:04.329,-0.050201416015625,
122,122,562,2021-10-08 17:14:04.333,0.1021957397460937,
123,123,566,2021-10-08 17:14:04.337,-0.0025399525960286,
124,124,570,2021-10-08 17:14:04.341,0.2950827280680339,
125,125,574,2021-10-08 17:14:04.345,-0.0221125284830729,
126,126,578,2021-10-08 17:14:04.349,0.0097115834554036,
127,127,582,2021-10-08 17:14:04.353,-0.1640510559082031,
128,128,586,2021-10-08 17:14:04.357,-0.5934524536132814,
129,129,590,2021-10-08 17:14:04.361,-0.6565030415852865,
130,130,594,2021-10-08 17:14:04.365,-1.1389446258544924,
131,131,598,2021-10-08 17:14:04.369,-0.932909647623698,
132,132,602,2021-10-08 17:14:04.373,-0.667409896850586,
133,133,606,2021-10-08 17:14:04.377,-0.5353323618570964,
134,134,610,2021-10-08 17:14:04.381,0.1138496398925781,
135,135,614,2021-10-08 17:14:04.385,0.1261011759440104,
136,136,618,2021-10-08 17:14:04.389,0.308230717976888,
137,137,622,2021-10-08 17:14:04.393,0.1867612202962239,
138,138,626,2021-10-08 17:14:04.397,-0.1128037770589192,
139,139,630,2021-10-08 17:14:04.401,0.0516955057779947,
140,140,634,2021-10-08 17:14:04.405,-0.3475252787272135,
141,141,638,2021-10-08 17:14:04.409,-0.1062297821044922,
142,142,642,2021-10-08 17:14:04.413,-0.0243536631266276,
143,143,646,2021-10-08 17:14:04.417,-0.2308368682861328,
144,144,650,2021-10-08 17:14:04.421,-0.0418345133463541,
145,145,654,2021-10-08 17:14:04.425,-0.3904056549072266,
146,146,658,2021-10-08 17:14:04.429,-0.2666950225830078,
147,147,662,2021-10-08 17:14:04.433,-0.3182411193847657,
148,148,666,2021-10-08 17:14:04.437,-0.3542486826578776,
149,149,670,2021-10-08 17:14:04.441,0.0330193837483724,
150,150,674,2021-10-08 17:14:04.445,-0.2910486857096354,
151,151,678,2021-10-08 17:14:04.449,-0.2097702026367187,
152,152,682,2021-10-08 17:14:04.453,-0.2550411224365235,
153,153,686,2021-10-08 17:14:04.457,-0.4558467864990235,
154,154,690,2021-10-08 17:14:04.461,-0.1656945546468099,
155,155,694,2021-10-08 17:14:04.465,-0.3278032938639323,
156,156,698,2021-10-08 17:14:04.469,-0.1193777720133463,
157,157,702,2021-10-08 17:14:04.473,-0.1377550760904948,
158,158,706,2021-10-08 17:14:04.477,-0.3263092041015625,
159,159,710,2021-10-08 17:14:04.481,-0.0633494059244791,
160,160,714,2021-10-08 17:14:04.485,-0.4122193654378255,
161,161,718,2021-10-08 17:14:04.489,-0.2877616882324219,
162,162,722,2021-10-08 17:14:04.493,-0.1559829711914062,
163,163,726,2021-10-08 17:14:04.497,-0.2401002248128255,
164,164,730,2021-10-08 17:14:04.501,0.021066665649414,
165,165,734,2021-10-08 17:14:04.505,-0.3324349721272787,
166,166,738,2021-10-08 17:14:04.509,-0.2069314320882161,
167,167,742,2021-10-08 17:14:04.513,-0.2765560150146485,
168,168,746,2021-10-08 17:14:04.517,-0.3848775227864583,
169,169,750,2021-10-08 17:14:04.521,0.0422827402750651,
170,170,754,2021-10-08 17:14:04.525,-0.2384567260742187,
171,171,758,2021-10-08 17:14:04.529,-0.1293881734212239,
172,172,762,2021-10-08 17:14:04.533,-0.1851177215576172,
173,173,766,2021-10-08 17:14:04.537,-0.3696378072102865,
174,174,770,2021-10-08 17:14:04.541,-0.1453749338785807,
175,175,774,2021-10-08 17:14:04.545,-0.4223791758219402,
176,176,778,2021-10-08 17:14:04.549,-0.1187801361083984,
177,177,782,2021-10-08 17:14:04.553,-0.0839678446451823,
178,178,786,2021-10-08 17:14:04.557,-0.2853711446126302,
179,179,790,2021-10-08 17:14:04.561,-0.0611082712809244,
180,180,794,2021-10-08 17:14:04.565,-0.408782958984375,
181,181,798,2021-10-08 17:14:04.569,-0.3133106231689453,
182,182,802,2021-10-08 17:14:04.573,-0.2489153544108073,
183,183,806,2021-10-08 17:14:04.577,-0.2849229176839193,
184,184,810,2021-10-08 17:14:04.581,-0.0020917256673177,
185,185,814,2021-10-08 17:14:04.585,-0.3591791788736979,
186,186,818,2021-10-08 17:14:04.589,-0.2421919504801432,
187,187,822,2021-10-08 17:14:04.593,-0.2646032969156901,
188,188,826,2021-10-08 17:14:04.597,-0.4730288187662761,
189,189,830,2021-10-08 17:14:04.601,-0.1244576772054036,
190,190,834,2021-10-08 17:14:04.605,-0.3058401743570964,
191,191,838,2021-10-08 17:14:04.609,-0.1322269439697266,
192,192,842,2021-10-08 17:14:04.613,-0.1758543650309245,
193,193,846,2021-10-08 17:14:04.617,-0.3675460815429688,
194,194,850,2021-10-08 17:14:04.621,-0.1181825002034505,
195,195,854,2021-10-08 17:14:04.625,-0.4559961954752605,
196,196,858,2021-10-08 17:14:04.629,-0.1573276519775391,
197,197,862,2021-10-08 17:14:04.633,-0.0530401865641276,
198,198,866,2021-10-08 17:14:04.637,-0.2257569630940755,
199,199,870,2021-10-08 17:14:04.641,-0.0076198577880859,
200,200,874,2021-10-08 17:14:04.645,-0.3566392262776693,
201,201,878,2021-10-08 17:14:04.649,-0.2206770579020182,
202,202,882,2021-10-08 17:14:04.653,-0.2587763468424479,
203,203,886,2021-10-08 17:14:04.657,-0.2764066060384115,
204,204,890,2021-10-08 17:14:04.661,0.1105626424153645,
205,205,894,2021-10-08 17:14:04.665,-0.2166430155436198,
206,206,898,2021-10-08 17:14:04.669,-0.136410395304362,
207,207,902,2021-10-08 17:14:04.673,-0.2030467987060547,
208,208,906,2021-10-08 17:14:04.677,-0.416103998819987,
209,209,910,2021-10-08 17:14:04.681,-0.1349163055419922,
210,210,914,2021-10-08 17:14:04.685,-0.287313461303711,
211,211,918,2021-10-08 17:14:04.689,-0.0779914855957031,
212,212,922,2021-10-08 17:14:04.693,-0.1332728068033854,
213,213,926,2021-10-08 17:14:04.697,-0.3422959645589193,
214,214,930,2021-10-08 17:14:04.701,-0.085910161336263,
215,215,934,2021-10-08 17:14:04.705,-0.4317919413248698,
216,216,938,2021-10-08 17:14:04.709,-0.2752113342285157,
217,217,942,2021-10-08 17:14:04.713,-0.136410395304362,
218,218,946,2021-10-08 17:14:04.717,-0.229193369547526,
219,219,950,2021-10-08 17:14:04.721,0.0046316782633463,
220,220,954,2021-10-08 17:14:04.725,-0.3750165303548177,
221,221,958,2021-10-08 17:14:04.729,-0.2595233917236328,
222,222,962,2021-10-08 17:14:04.733,-0.3188387552897135,
223,223,966,2021-10-08 17:14:04.737,-0.3904056549072266,
224,224,970,2021-10-08 17:14:04.741,0.0372028350830078,
225,225,974,2021-10-08 17:14:04.745,-0.2568340301513672,
226,226,978,2021-10-08 17:14:04.749,-0.1634534200032552,
227,227,982,2021-10-08 17:14:04.753,-0.2211252848307291,
228,228,986,2021-10-08 17:14:04.757,-0.3851763407389323,
229,229,990,2021-10-08 17:14:04.761,-0.1561323801676432,
230,230,994,2021-10-08 17:14:04.765,-0.4038524627685547,
231,231,998,2021-10-08 17:14:04.769,-0.0923347473144531,
232,232,1002,2021-10-08 17:14:04.773,-0.0696245829264323,
233,233,1006,2021-10-08 17:14:04.777,-0.2816359202067057,
234,234,1010,2021-10-08 17:14:04.781,-0.0736586252848307,
235,235,1014,2021-10-08 17:14:04.785,-0.4123687744140625,
236,236,1018,2021-10-08 17:14:04.789,-0.3121153513590495,
237,237,1022,2021-10-08 17:14:04.793,-0.2141030629475911,
238,238,1026,2021-10-08 17:14:04.797,-0.2462259928385416,
239,239,1030,2021-10-08 17:14:04.801,0.0386969248453776,
240,240,1034,2021-10-08 17:14:04.805,-0.3053919474283854,
241,241,1038,2021-10-08 17:14:04.809,-0.1931858062744141,
242,242,1042,2021-10-08 17:14:04.813,-0.2357673645019531,
243,243,1046,2021-10-08 17:14:04.817,-0.4418023427327474,
244,244,1050,2021-10-08 17:14:04.821,-0.0637976328531901,
245,245,1054,2021-10-08 17:14:04.825,-0.251305898030599,
246,246,1058,2021-10-08 17:14:04.829,-0.0972652435302734,
247,247,1062,2021-10-08 17:14:04.833,-0.1591205596923828,
248,248,1066,2021-10-08 17:14:04.837,-0.3563404083251953,
249,249,1070,2021-10-08 17:14:04.841,-0.078439712524414,
250,250,1074,2021-10-08 17:14:04.845,-0.3472264607747396,
251,251,1078,2021-10-08 17:14:04.849,-0.265649159749349,
252,252,1082,2021-10-08 17:14:04.853,-0.0469144185384114,
253,253,1086,2021-10-08 17:14:04.857,-0.3563404083251953,
254,254,1090,2021-10-08 17:14:04.861,-0.1325257619222005,
255,255,1094,2021-10-08 17:14:04.865,-0.337066650390625,
256,256,1098,2021-10-08 17:14:04.869,-0.336767832438151,
257,257,1102,2021-10-08 17:14:04.873,-0.1828765869140625,
258,258,1106,2021-10-08 17:14:04.877,-0.3269068400065104,
259,259,1110,2021-10-08 17:14:04.881,0.0242042541503906,
260,260,1114,2021-10-08 17:14:04.885,-0.2051385243733724,
261,261,1118,2021-10-08 17:14:04.889,-0.2571328481038412,
262,262,1122,2021-10-08 17:14:04.893,-0.1165390014648437,
263,263,1126,2021-10-08 17:14:04.897,-0.4477787017822266,
264,264,1130,2021-10-08 17:14:04.901,-0.1640510559082031,
265,265,1134,2021-10-08 17:14:04.905,-0.214850107828776,
266,266,1138,2021-10-08 17:14:04.909,-0.1758543650309245,
267,267,1142,2021-10-08 17:14:04.913,-0.0667858123779297,
268,268,1146,2021-10-08 17:14:04.917,-0.3924973805745443,
269,269,1150,2021-10-08 17:14:04.921,-0.1462713877360026,
270,270,1154,2021-10-08 17:14:04.925,-0.3724765777587891,
271,271,1158,2021-10-08 17:14:04.929,-0.3306420644124349,
272,272,1162,2021-10-08 17:14:04.933,0.114148457845052,
273,273,1166,2021-10-08 17:14:04.937,-0.2036444346110026,
274,274,1170,2021-10-08 17:14:04.941,-0.1592699686686198,
275,275,1174,2021-10-08 17:14:04.945,-0.078439712524414,
276,276,1178,2021-10-08 17:14:04.949,-0.459582010904948,
277,277,1182,2021-10-08 17:14:04.953,-0.3038978576660157,
278,278,1186,2021-10-08 17:14:04.957,-0.3998184204101563,
279,279,1190,2021-10-08 17:14:04.961,-0.2218723297119141,
280,280,1194,2021-10-08 17:14:04.965,-0.0059763590494791,
281,281,1198,2021-10-08 17:14:04.969,-0.3330326080322266,
282,282,1202,2021-10-08 17:14:04.973,-0.1193777720133463,
283,283,1206,2021-10-08 17:14:04.977,-0.330044428507487,
284,284,1210,2021-10-08 17:14:04.981,-0.366051991780599,
285,285,1214,2021-10-08 17:14:04.985,-0.1396973927815755,
286,286,1218,2021-10-08 17:14:04.989,-0.2684879302978516,
287,287,1222,2021-10-08 17:14:04.993,0.0239054361979166,
288,288,1226,2021-10-08 17:14:04.997,-0.2181371053059896,
289,289,1230,2021-10-08 17:14:05.001,-0.2544434865315755,
290,290,1234,2021-10-08 17:14:05.005,-0.1174354553222656,
291,291,1238,2021-10-08 17:14:05.009,-0.4565938313802083,
292,292,1242,2021-10-08 17:14:05.013,-0.0960699717203776,
293,293,1246,2021-10-08 17:14:05.017,-0.1882553100585937,
294,294,1250,2021-10-08 17:14:05.021,-0.1957257588704427,
295,295,1254,2021-10-08 17:14:05.025,-0.0891971588134765,
296,296,1258,2021-10-08 17:14:05.029,-0.430148442586263,
297,297,1262,2021-10-08 17:14:05.033,-0.2178382873535156,
298,298,1266,2021-10-08 17:14:05.037,-0.4550997416178386,
299,299,1270,2021-10-08 17:14:05.041,-0.2699820200602214,
300,300,1274,2021-10-08 17:14:05.045,0.1165390014648437,
301,301,1278,2021-10-08 17:14:05.049,-0.0696245829264323,
302,302,1282,2021-10-08 17:14:05.053,0.2274004618326823,
303,303,1286,2021-10-08 17:14:05.057,0.0533390045166015,
304,304,1290,2021-10-08 17:14:05.061,-0.0007470448811848,
305,305,1294,2021-10-08 17:14:05.065,0.0339158376057942,
306,306,1298,2021-10-08 17:14:05.069,-0.445238749186198,
307,307,1302,2021-10-08 17:14:05.073,-0.5632718404134115,
308,308,1306,2021-10-08 17:14:05.077,-1.0664812723795574,
309,309,1310,2021-10-08 17:14:05.081,-1.1153380076090496,
310,310,1314,2021-10-08 17:14:05.085,-0.7235876719156902,
311,311,1318,2021-10-08 17:14:05.089,-0.6726392110188802,
312,312,1322,2021-10-08 17:14:05.093,-0.1192283630371093,
313,313,1326,2021-10-08 17:14:05.097,0.0965181986490885,
314,314,1330,2021-10-08 17:14:05.101,0.3183905283610026,
315,315,1334,2021-10-08 17:14:05.105,0.4542032877604167,
316,316,1338,2021-10-08 17:14:05.109,0.0256983439127604,
317,317,1342,2021-10-08 17:14:05.113,0.1187801361083984,
318,318,1346,2021-10-08 17:14:05.117,-0.2427895863850911,
319,319,1350,2021-10-08 17:14:05.121,-0.2442836761474609,
320,320,1354,2021-10-08 17:14:05.125,0.0334676106770833,
321,321,1358,2021-10-08 17:14:05.129,-0.265200932820638,
322,322,1362,2021-10-08 17:14:05.133,-0.0914382934570312,
323,323,1366,2021-10-08 17:14:05.137,-0.3570874532063802,
324,324,1370,2021-10-08 17:14:05.141,-0.3663508097330729,
325,325,1374,2021-10-08 17:14:05.145,-0.2381579081217448,
326,326,1378,2021-10-08 17:14:05.149,-0.4779593149820964,
327,327,1382,2021-10-08 17:14:05.153,-0.0590165456136067,
328,328,1386,2021-10-08 17:14:05.157,-0.2021503448486328,
329,329,1390,2021-10-08 17:14:05.161,-0.2396519978841146,
330,330,1394,2021-10-08 17:14:05.165,-0.1293881734212239,
331,331,1398,2021-10-08 17:14:05.169,-0.4495716094970703,
332,332,1402,2021-10-08 17:14:05.173,-0.2489153544108073,
333,333,1406,2021-10-08 17:14:05.177,-0.3366184234619141,
334,334,1410,2021-10-08 17:14:05.181,-0.2000586191813151,
335,335,1414,2021-10-08 17:14:05.185,-0.0162855784098307,
336,336,1418,2021-10-08 17:14:05.189,-0.3324349721272787,
337,337,1422,2021-10-08 17:14:05.193,-0.1047356923421224,
338,338,1426,2021-10-08 17:14:05.197,-0.3071848551432292,
339,339,1430,2021-10-08 17:14:05.201,-0.3458817799886068,
340,340,1434,2021-10-08 17:14:05.205,-0.1325257619222005,
341,341,1438,2021-10-08 17:14:05.209,-0.2885087331136068,
342,342,1442,2021-10-08 17:14:05.213,-0.0164349873860677,
343,343,1446,2021-10-08 17:14:05.217,-0.2487659454345703,
344,344,1450,2021-10-08 17:14:05.221,-0.265350341796875,
345,345,1454,2021-10-08 17:14:05.225,-0.11474609375,
346,346,1458,2021-10-08 17:14:05.229,-0.4416529337565105,
347,347,1462,2021-10-08 17:14:05.233,-0.0703716278076172,
348,348,1466,2021-10-08 17:14:05.237,-0.1767508188883463,
349,349,1470,2021-10-08 17:14:05.241,-0.1921399434407552,
350,350,1474,2021-10-08 17:14:05.245,-0.0896453857421875,
351,351,1478,2021-10-08 17:14:05.249,-0.4040018717447917,
352,352,1482,2021-10-08 17:14:05.253,-0.164648691813151,
353,353,1486,2021-10-08 17:14:05.257,-0.3932444254557292,
354,354,1490,2021-10-08 17:14:05.261,-0.2420425415039062,
355,355,1494,2021-10-08 17:14:05.265,0.0328699747721354,
356,356,1498,2021-10-08 17:14:05.269,-0.2901522318522135,
357,357,1502,2021-10-08 17:14:05.273,-0.1138496398925781,
358,358,1506,2021-10-08 17:14:05.277,-0.3570874532063802,
359,359,1510,2021-10-08 17:14:05.281,-0.3989219665527344,
360,360,1514,2021-10-08 17:14:05.285,-0.2034950256347656,
361,361,1518,2021-10-08 17:14:05.289,-0.3419971466064453,
362,362,1522,2021-10-08 17:14:05.293,-0.035858154296875,
363,363,1526,2021-10-08 17:14:05.297,-0.2698326110839844,
364,364,1530,2021-10-08 17:14:05.301,-0.3018061319986979,
365,365,1534,2021-10-08 17:14:05.305,-0.1546382904052734,
366,366,1538,2021-10-08 17:14:05.309,-0.4704888661702474,
367,367,1542,2021-10-08 17:14:05.313,-0.2469730377197266,
368,368,1546,2021-10-08 17:14:05.317,-0.3067366282145182,
369,369,1550,2021-10-08 17:14:05.321,-0.1882553100585937,
370,370,1554,2021-10-08 17:14:05.325,-0.0273418426513671,
371,371,1558,2021-10-08 17:14:05.329,-0.3561909993489583,
372,372,1562,2021-10-08 17:14:05.333,-0.1272964477539062,
373,373,1566,2021-10-08 17:14:05.337,-0.3953361511230469,
374,374,1570,2021-10-08 17:14:05.341,-0.3118165334065755,
375,375,1574,2021-10-08 17:14:05.345,0.0162855784098307,
376,376,1578,2021-10-08 17:14:05.349,-0.2523517608642578,
377,377,1582,2021-10-08 17:14:05.353,-0.0458685557047526,
378,378,1586,2021-10-08 17:14:05.357,-0.2917957305908203,
379,379,1590,2021-10-08 17:14:05.361,-0.2883593241373698,
380,380,1594,2021-10-08 17:14:05.365,-0.150305430094401,
381,381,1598,2021-10-08 17:14:05.369,-0.380544662475586,
382,382,1602,2021-10-08 17:14:05.373,0.0249512990315755,
383,383,1606,2021-10-08 17:14:05.377,-0.1537418365478516,
384,384,1610,2021-10-08 17:14:05.381,-0.1984151204427083,
385,385,1614,2021-10-08 17:14:05.385,-0.0797843933105468,
386,386,1618,2021-10-08 17:14:05.389,-0.3924973805745443,
387,387,1622,2021-10-08 17:14:05.393,-0.1878070831298828,
388,388,1626,2021-10-08 17:14:05.397,-0.2828311920166016,
389,389,1630,2021-10-08 17:14:05.401,-0.1703262329101562,
390,390,1634,2021-10-08 17:14:05.405,-0.0107574462890625,
391,391,1638,2021-10-08 17:14:05.409,-0.3475252787272135,
392,392,1642,2021-10-08 17:14:05.413,-0.1183319091796875,
393,393,1646,2021-10-08 17:14:05.417,-0.3327337900797526,
394,394,1650,2021-10-08 17:14:05.421,-0.3703848520914714,
395,395,1654,2021-10-08 17:14:05.425,-0.1337210337320963,
396,396,1658,2021-10-08 17:14:05.429,-0.2767054239908854,
397,397,1662,2021-10-08 17:14:05.433,-0.0034364064534505,
398,398,1666,2021-10-08 17:14:05.437,-0.2471224466959635,
399,399,1670,2021-10-08 17:14:05.441,-0.2826817830403646,
400,400,1674,2021-10-08 17:14:05.445,-0.1580746968587239,
401,401,1678,2021-10-08 17:14:05.449,-0.4689947764078777,
402,402,1682,2021-10-08 17:14:05.453,-0.0773938496907552,
403,403,1686,2021-10-08 17:14:05.457,-0.1845200856526692,
404,404,1690,2021-10-08 17:14:05.461,-0.2048397064208984,
405,405,1694,2021-10-08 17:14:05.465,-0.1033910115559895,
406,406,1698,2021-10-08 17:14:05.469,-0.4213333129882813,
407,407,1702,2021-10-08 17:14:05.473,-0.1943810780843099,
408,408,1706,2021-10-08 17:14:05.477,-0.4137134552001953,
409,409,1710,2021-10-08 17:14:05.481,-0.251455307006836,
410,410,1714,2021-10-08 17:14:05.485,0.0234572092692057,
411,411,1718,2021-10-08 17:14:05.489,-0.280141830444336,
412,412,1722,2021-10-08 17:14:05.493,-0.0894959767659505,
413,413,1726,2021-10-08 17:14:05.497,-0.3327337900797526,
414,414,1730,2021-10-08 17:14:05.501,-0.3820387522379557,
415,415,1734,2021-10-08 17:14:05.505,-0.1840718587239583,
416,416,1738,2021-10-08 17:14:05.509,-0.3174940745035807,
417,417,1742,2021-10-08 17:14:05.513,-0.0049304962158203,
418,418,1746,2021-10-08 17:14:05.517,-0.2279980977376302,
419,419,1750,2021-10-08 17:14:05.521,-0.2701314290364583,
420,420,1754,2021-10-08 17:14:05.525,-0.1235612233479817,
421,421,1758,2021-10-08 17:14:05.529,-0.4332860310872396,
422,422,1762,2021-10-08 17:14:05.533,-0.1893011728922526,
423,423,1766,2021-10-08 17:14:05.537,-0.2529493967692057,Start
424,424,1770,2021-10-08 17:14:05.541,-0.1543394724527995,
425,425,1774,2021-10-08 17:14:05.545,0.0055281321207682,
426,426,1778,2021-10-08 17:14:05.549,-0.3364690144856771,
427,427,1782,2021-10-08 17:14:05.553,-0.1228141784667968,
428,428,1786,2021-10-08 17:14:05.557,-0.3990713755289714,
429,429,1790,2021-10-08 17:14:05.561,-0.3116671244303385,
430,430,1794,2021-10-08 17:14:05.565,0.0073210398356119,
431,431,1798,2021-10-08 17:14:05.569,-0.2587763468424479,
432,432,1802,2021-10-08 17:14:05.573,-0.0557295481363932,
433,433,1806,2021-10-08 17:14:05.577,-0.3058401743570964,
434,434,1810,2021-10-08 17:14:05.581,-0.3198846181233724,
435,435,1814,2021-10-08 17:14:05.585,-0.1961739857991536,
436,436,1818,2021-10-08 17:14:05.589,-0.4144605000813802,
437,437,1822,2021-10-08 17:14:05.593,-0.0203196207682291,
438,438,1826,2021-10-08 17:14:05.597,-0.2003574371337891,
439,439,1830,2021-10-08 17:14:05.601,-0.2423413594563802,
440,440,1834,2021-10-08 17:14:05.605,-0.1193777720133463,
441,441,1838,2021-10-08 17:14:05.609,-0.4443422953287761,
442,442,1842,2021-10-08 17:14:05.613,-0.2203782399495443,
443,443,1846,2021-10-08 17:14:05.617,-0.2891063690185547,
444,444,1850,2021-10-08 17:14:05.621,-0.1821295420328776,
445,445,1854,2021-10-08 17:14:05.625,-0.0246524810791015,
446,446,1858,2021-10-08 17:14:05.629,-0.3561909993489583,
447,447,1862,2021-10-08 17:14:05.633,-0.1083215077718099,
448,448,1866,2021-10-08 17:14:05.637,-0.3019555409749349,
449,449,1870,2021-10-08 17:14:05.641,-0.3322855631510417,
450,450,1874,2021-10-08 17:14:05.645,-0.0732103983561198,
451,451,1878,2021-10-08 17:14:05.649,-0.2611668904622396,
452,452,1882,2021-10-08 17:14:05.653,-0.0109068552652994,
453,453,1886,2021-10-08 17:14:05.657,-0.2478694915771484,
454,454,1890,2021-10-08 17:14:05.661,-0.2680397033691407,
455,455,1894,2021-10-08 17:14:05.665,-0.1447772979736328,
456,456,1898,2021-10-08 17:14:05.669,-0.4586855570475261,
457,457,1902,2021-10-08 17:14:05.673,-0.0758997599283854,
458,458,1906,2021-10-08 17:14:05.677,-0.2058855692545573,
459,459,1910,2021-10-08 17:14:05.681,-0.2299404144287109,
460,460,1914,2021-10-08 17:14:05.685,-0.1044368743896484,
461,461,1918,2021-10-08 17:14:05.689,-0.4147593180338542,
462,462,1922,2021-10-08 17:14:05.693,-0.1916917165120443,
463,463,1926,2021-10-08 17:14:05.697,-0.3999678293863933,
464,464,1930,2021-10-08 17:14:05.701,-0.2417437235514323,
465,465,1934,2021-10-08 17:14:05.705,0.0176302591959635,
466,466,1938,2021-10-08 17:14:05.709,-0.301656723022461,
467,467,1942,2021-10-08 17:14:05.713,-0.0977134704589843,
468,468,1946,2021-10-08 17:14:05.717,-0.3319867451985677,
469,469,1950,2021-10-08 17:14:05.721,-0.3830846150716146,
470,470,1954,2021-10-08 17:14:05.725,-0.1713720957438151,
471,471,1958,2021-10-08 17:14:05.729,-0.3325843811035157,
472,472,1962,2021-10-08 17:14:05.733,-0.0599129994710286,
473,473,1966,2021-10-08 17:14:05.737,-0.2737172444661458,
474,474,1970,2021-10-08 17:14:05.741,-0.2424907684326172,
475,475,1974,2021-10-08 17:14:05.745,0.0079186757405598,
476,476,1978,2021-10-08 17:14:05.749,-0.2190335591634115,
477,477,1982,2021-10-08 17:14:05.753,0.1616605122884114,
478,478,1986,2021-10-08 17:14:05.757,0.1631546020507812,
479,479,1990,2021-10-08 17:14:05.761,0.1952775319417318,
480,480,1994,2021-10-08 17:14:05.765,0.172268549601237,
481,481,1998,2021-10-08 17:14:05.769,-0.5123233795166017,
482,482,2002,2021-10-08 17:14:05.773,-0.6983375549316407,
483,483,2006,2021-10-08 17:14:05.777,-1.1960188547770183,
484,484,2010,2021-10-08 17:14:05.781,-1.1104075113932292,
485,485,2014,2021-10-08 17:14:05.785,-0.5906136830647787,
486,486,2018,2021-10-08 17:14:05.789,-0.530999501546224,
487,487,2022,2021-10-08 17:14:05.793,-0.0062751770019531,
488,488,2026,2021-10-08 17:14:05.797,0.0155385335286458,
489,489,2030,2021-10-08 17:14:05.801,0.100104014078776,
490,490,2034,2021-10-08 17:14:05.805,0.1806354522705078,
491,491,2038,2021-10-08 17:14:05.809,-0.1244576772054036,
492,492,2042,2021-10-08 17:14:05.813,0.1895999908447266,
493,493,2046,2021-10-08 17:14:05.817,-0.0488567352294921,
494,494,2050,2021-10-08 17:14:05.821,-0.1462713877360026,
495,495,2054,2021-10-08 17:14:05.825,-0.0672340393066406,
496,496,2058,2021-10-08 17:14:05.829,-0.4183451334635417,
497,497,2062,2021-10-08 17:14:05.833,-0.2043914794921875,
498,498,2066,2021-10-08 17:14:05.837,-0.2752113342285157,
499,499,2070,2021-10-08 17:14:05.841,-0.1870600382486979,
500,500,2074,2021-10-08 17:14:05.845,0.092633565266927,
501,501,2078,2021-10-08 17:14:05.849,-0.3422959645589193,
502,502,2082,2021-10-08 17:14:05.853,-0.2817853291829427,
503,503,2086,2021-10-08 17:14:05.857,-0.3179423014322917,
504,504,2090,2021-10-08 17:14:05.861,-0.5039564768473308,
505,505,2094,2021-10-08 17:14:05.865,-0.0935300191243489,
506,506,2098,2021-10-08 17:14:05.869,-0.2690855662027995,
507,507,2102,2021-10-08 17:14:05.873,-0.1177342732747395,
508,508,2106,2021-10-08 17:14:05.877,-0.1770496368408203,
509,509,2110,2021-10-08 17:14:05.881,-0.373223622639974,
510,510,2114,2021-10-08 17:14:05.885,-0.1353645324707031,
511,511,2118,2021-10-08 17:14:05.889,-0.459432601928711,
512,512,2122,2021-10-08 17:14:05.893,-0.1603158315022786,
513,513,2126,2021-10-08 17:14:05.897,-0.0817267100016276,
514,514,2130,2021-10-08 17:14:05.901,-0.2662467956542969,
515,515,2134,2021-10-08 17:14:05.905,-0.0360075632731119,
516,516,2138,2021-10-08 17:14:05.909,-0.3790505727132162,
517,517,2142,2021-10-08 17:14:05.913,-0.2619139353434245,
518,518,2146,2021-10-08 17:14:05.917,-0.2773030598958333,
519,519,2150,2021-10-08 17:14:05.921,-0.2752113342285157,
520,520,2154,2021-10-08 17:14:05.925,0.0863583882649739,
521,521,2158,2021-10-08 17:14:05.929,-0.2635574340820313,
522,522,2162,2021-10-08 17:14:05.933,-0.1822789510091146,
523,523,2166,2021-10-08 17:14:05.937,-0.2305380503336588,
524,524,2170,2021-10-08 17:14:05.941,-0.4471810658772787,
525,525,2174,2021-10-08 17:14:05.945,-0.0933806101481119,
526,526,2178,2021-10-08 17:14:05.949,-0.2463754018147786,
527,527,2182,2021-10-08 17:14:05.953,-0.0729115804036458,
528,528,2186,2021-10-08 17:14:05.957,-0.1338704427083333,
529,529,2190,2021-10-08 17:14:05.961,-0.3422959645589193,
530,530,2194,2021-10-08 17:14:05.965,-0.0953229268391927,
531,531,2198,2021-10-08 17:14:05.969,-0.466604232788086,
532,532,2202,2021-10-08 17:14:05.973,-0.2755101521809896,
533,533,2206,2021-10-08 17:14:05.977,-0.1311810811360677,
534,534,2210,2021-10-08 17:14:05.981,-0.257879892985026,
535,535,2214,2021-10-08 17:14:05.985,-0.0337664286295572,
536,536,2218,2021-10-08 17:14:05.989,-0.401611328125,
537,537,2222,2021-10-08 17:14:05.993,-0.2888075510660807,
538,538,2226,2021-10-08 17:14:05.997,-0.3536510467529297,
539,539,2230,2021-10-08 17:14:06.001,-0.3848775227864583,
540,540,2234,2021-10-08 17:14:06.005,0.0310770670572916,
541,541,2238,2021-10-08 17:14:06.009,-0.2877616882324219,
542,542,2242,2021-10-08 17:14:06.013,-0.2169418334960937,
543,543,2246,2021-10-08 17:14:06.017,-0.2474212646484375,
544,544,2250,2021-10-08 17:14:06.021,-0.4276084899902344,
545,545,2254,2021-10-08 17:14:06.025,-0.1907952626546224,
546,546,2258,2021-10-08 17:14:06.029,-0.3883139292399089,
547,547,2262,2021-10-08 17:14:06.033,-0.0814278920491536,
548,548,2266,2021-10-08 17:14:06.037,-0.0646940867106119,
549,549,2270,2021-10-08 17:14:06.041,-0.2804406483968099,
550,550,2274,2021-10-08 17:14:06.045,-0.0482590993245442,
551,551,2278,2021-10-08 17:14:06.049,-0.3981749216715495,
552,552,2282,2021-10-08 17:14:06.053,-0.2689361572265625,
553,553,2286,2021-10-08 17:14:06.057,-0.1180330912272135,
554,554,2290,2021-10-08 17:14:06.061,-0.1955763498942057,
555,555,2294,2021-10-08 17:14:06.065,0.0546836853027343,
556,556,2298,2021-10-08 17:14:06.069,-0.3167470296223958,
557,557,2302,2021-10-08 17:14:06.073,-0.1987139383951823,
558,558,2306,2021-10-08 17:14:06.077,-0.2324803670247396,
559,559,2310,2021-10-08 17:14:06.081,-0.4083347320556641,
560,560,2314,2021-10-08 17:14:06.085,0.0124009450276692,
561,561,2318,2021-10-08 17:14:06.089,-0.2088737487792969,
562,562,2322,2021-10-08 17:14:06.093,-0.0897947947184244,
563,563,2326,2021-10-08 17:14:06.097,-0.164947509765625,
564,564,2330,2021-10-08 17:14:06.101,-0.3675460815429688,
565,565,2334,2021-10-08 17:14:06.105,-0.1393985748291016,
566,566,2338,2021-10-08 17:14:06.109,-0.437320073445638,
567,567,2342,2021-10-08 17:14:06.113,-0.1232624053955078,
568,568,2346,2021-10-08 17:14:06.117,-0.0742562611897786,
569,569,2350,2021-10-08 17:14:06.121,-0.2831300099690755,
570,570,2354,2021-10-08 17:14:06.125,-0.0687281290690104,
571,571,2358,2021-10-08 17:14:06.129,-0.4152075449625652,
572,572,2362,2021-10-08 17:14:06.133,-0.3001626332600912,
573,573,2366,2021-10-08 17:14:06.137,-0.2891063690185547,
574,574,2370,2021-10-08 17:14:06.141,-0.2861181894938151,
575,575,2374,2021-10-08 17:14:06.145,0.0611082712809244,
576,576,2378,2021-10-08 17:14:06.149,-0.294186274210612,
577,577,2382,2021-10-08 17:14:06.153,-0.2043914794921875,
578,578,2386,2021-10-08 17:14:06.157,-0.2409966786702474,
579,579,2390,2021-10-08 17:14:06.161,-0.4597314198811849,
580,580,2394,2021-10-08 17:14:06.165,-0.0941276550292968,
581,581,2398,2021-10-08 17:14:06.169,-0.2677408854166667,
582,582,2402,2021-10-08 17:14:06.173,-0.0990581512451172,
583,583,2406,2021-10-08 17:14:06.177,-0.1500066121419271,
584,584,2410,2021-10-08 17:14:06.181,-0.3532028198242188,
585,585,2414,2021-10-08 17:14:06.185,-0.0900936126708984,
586,586,2418,2021-10-08 17:14:06.189,-0.4498704274495443,
587,587,2422,2021-10-08 17:14:06.193,-0.2403990427652995,
588,588,2426,2021-10-08 17:14:06.197,-0.0953229268391927,
589,589,2430,2021-10-08 17:14:06.201,-0.2329285939534505,
590,590,2434,2021-10-08 17:14:06.205,-0.0159867604573567,
591,591,2438,2021-10-08 17:14:06.209,-0.387716293334961,
592,592,2442,2021-10-08 17:14:06.213,-0.2692349751790365,
593,593,2446,2021-10-08 17:14:06.217,-0.3091271718343099,
594,594,2450,2021-10-08 17:14:06.221,-0.322723388671875,
595,595,2454,2021-10-08 17:14:06.225,0.0745550791422526,
596,596,2458,2021-10-08 17:14:06.229,-0.2545928955078125,
597,597,2462,2021-10-08 17:14:06.233,-0.1728661855061849,
598,598,2466,2021-10-08 17:14:06.237,-0.2197806040445963,
599,599,2470,2021-10-08 17:14:06.241,-0.3881645202636719,
600,600,2474,2021-10-08 17:14:06.245,-0.1580746968587239,
601,601,2478,2021-10-08 17:14:06.249,-0.3558921813964844,
602,602,2482,2021-10-08 17:14:06.253,-0.0853125254313151,
603,603,2486,2021-10-08 17:14:06.257,-0.0948746999104817,
604,604,2490,2021-10-08 17:14:06.261,-0.3106212615966797,
605,605,2494,2021-10-08 17:14:06.265,-0.0750033060709635,
606,606,2498,2021-10-08 17:14:06.269,-0.4311943054199219,
607,607,2502,2021-10-08 17:14:06.273,-0.2923933664957682,
608,608,2506,2021-10-08 17:14:06.277,-0.1486619313557942,
609,609,2510,2021-10-08 17:14:06.281,-0.2312850952148437,
610,610,2514,2021-10-08 17:14:06.285,0.0156879425048828,
611,611,2518,2021-10-08 17:14:06.289,-0.3542486826578776,
612,612,2522,2021-10-08 17:14:06.293,-0.2323309580485026,
613,613,2526,2021-10-08 17:14:06.297,-0.2620633443196615,
614,614,2530,2021-10-08 17:14:06.301,-0.4404576619466146,
615,615,2534,2021-10-08 17:14:06.305,-0.0273418426513671,
616,616,2538,2021-10-08 17:14:06.309,-0.2420425415039062,
617,617,2542,2021-10-08 17:14:06.313,-0.1163895924886067,
618,618,2546,2021-10-08 17:14:06.317,-0.1903470357259114,
619,619,2550,2021-10-08 17:14:06.321,-0.3860727945963542,
620,620,2554,2021-10-08 17:14:06.325,-0.1444784800211588,
621,621,2558,2021-10-08 17:14:06.329,-0.4297002156575521,
622,622,2562,2021-10-08 17:14:06.333,-0.1092179616292317,
623,623,2566,2021-10-08 17:14:06.337,-0.0545342763264974,
624,624,2570,2021-10-08 17:14:06.341,-0.2693843841552735,
625,625,2574,2021-10-08 17:14:06.345,-0.0534884134928385,
626,626,2578,2021-10-08 17:14:06.349,-0.3845787048339844,
627,627,2582,2021-10-08 17:14:06.353,-0.2592245737711589,
628,628,2586,2021-10-08 17:14:06.357,-0.2447319030761719,
629,629,2590,2021-10-08 17:14:06.361,-0.2607186635335287,
630,630,2594,2021-10-08 17:14:06.365,0.0585683186848958,
631,631,2598,2021-10-08 17:14:06.369,-0.3079319000244141,
632,632,2602,2021-10-08 17:14:06.373,-0.2194817860921224,
633,633,2606,2021-10-08 17:14:06.377,-0.251156489054362,
634,634,2610,2021-10-08 17:14:06.381,-0.4624207814534505,
635,635,2614,2021-10-08 17:14:06.385,-0.0418345133463541,
636,636,2618,2021-10-08 17:14:06.389,-0.157477060953776,
637,637,2622,2021-10-08 17:14:06.393,-0.2138042449951172,
638,638,2626,2021-10-08 17:14:06.397,0.0122515360514322,
639,639,2630,2021-10-08 17:14:06.401,-0.4001172383626302,
640,640,2634,2021-10-08 17:14:06.405,-0.3035990397135417,
641,641,2638,2021-10-08 17:14:06.409,-0.3578344980875651,
642,642,2642,2021-10-08 17:14:06.413,-0.4250685373942058,
643,643,2646,2021-10-08 17:14:06.417,0.0259971618652343,
644,644,2650,2021-10-08 17:14:06.421,-0.2571328481038412,
645,645,2654,2021-10-08 17:14:06.425,-0.186163584391276,
646,646,2658,2021-10-08 17:14:06.429,-0.2374108632405599,
647,647,2662,2021-10-08 17:14:06.433,-0.4078865051269532,
648,648,2666,2021-10-08 17:14:06.437,-0.0893465677897135,
649,649,2670,2021-10-08 17:14:06.441,-0.1411914825439453,
650,650,2674,2021-10-08 17:14:06.445,0.2303886413574219,
651,651,2678,2021-10-08 17:14:06.449,0.293738047281901,
652,652,2682,2021-10-08 17:14:06.453,0.0900936126708984,
653,653,2686,2021-10-08 17:14:06.457,0.2172406514485677,
654,654,2690,2021-10-08 17:14:06.461,-0.4155063629150391,
655,655,2694,2021-10-08 17:14:06.465,-0.7276217142740886,
656,656,2698,2021-10-08 17:14:06.469,-0.9541257222493492,
657,657,2702,2021-10-08 17:14:06.473,-1.105477015177409,
658,658,2706,2021-10-08 17:14:06.477,-0.6795120239257814,
659,659,2710,2021-10-08 17:14:06.481,-0.7087961832682292,
660,660,2714,2021-10-08 17:14:06.485,-0.2577304840087891,
661,661,2718,2021-10-08 17:14:06.489,-0.0219631195068359,
662,662,2722,2021-10-08 17:14:06.493,-0.0319735209147135,
663,663,2726,2021-10-08 17:14:06.497,0.3960831960042318,
664,664,2730,2021-10-08 17:14:06.501,0.0878524780273437,
665,665,2734,2021-10-08 17:14:06.505,0.1042874654134114,
666,666,2738,2021-10-08 17:14:06.509,-0.0382486979166666,
667,667,2742,2021-10-08 17:14:06.513,-0.2753607432047526,
668,668,2746,2021-10-08 17:14:06.517,-0.0637976328531901,
669,669,2750,2021-10-08 17:14:06.521,-0.4141616821289063,
670,670,2754,2021-10-08 17:14:06.525,-0.1277446746826172,
671,671,2758,2021-10-08 17:14:06.529,-0.0576718648274739,
672,672,2762,2021-10-08 17:14:06.533,-0.2663962046305339,
673,673,2766,2021-10-08 17:14:06.537,-0.0626023610432942,
674,674,2770,2021-10-08 17:14:06.541,-0.4060935974121094,
675,675,2774,2021-10-08 17:14:06.545,-0.3073342641194662,
676,676,2778,2021-10-08 17:14:06.549,-0.2992661794026693,
677,677,2782,2021-10-08 17:14:06.553,-0.2991167704264323,
678,678,2786,2021-10-08 17:14:06.557,0.042581558227539,
679,679,2790,2021-10-08 17:14:06.561,-0.3110694885253907,
680,680,2794,2021-10-08 17:14:06.565,-0.2093219757080078,
681,681,2798,2021-10-08 17:14:06.569,-0.2338250478108724,
682,682,2802,2021-10-08 17:14:06.573,-0.4346307118733724,
683,683,2806,2021-10-08 17:14:06.577,-0.1476160685221354,
684,684,2810,2021-10-08 17:14:06.581,-0.3053919474283854,
685,685,2814,2021-10-08 17:14:06.585,-0.0938288370768229,
686,686,2818,2021-10-08 17:14:06.589,-0.1307328542073567,
687,687,2822,2021-10-08 17:14:06.593,-0.3416983286539714,
688,688,2826,2021-10-08 17:14:06.597,-0.0903924306233724,
689,689,2830,2021-10-08 17:14:06.601,-0.4525597890218099,
690,690,2834,2021-10-08 17:14:06.605,-0.1961739857991536,
691,691,2838,2021-10-08 17:14:06.609,-0.0821749369303385,
692,692,2842,2021-10-08 17:14:06.613,-0.250708262125651,
693,693,2846,2021-10-08 17:14:06.617,-0.0292841593424479,
694,694,2850,2021-10-08 17:14:06.621,-0.380395253499349,
695,695,2854,2021-10-08 17:14:06.625,-0.229641596476237,
696,696,2858,2021-10-08 17:14:06.629,-0.2846240997314453,
697,697,2862,2021-10-08 17:14:06.633,-0.3742694854736328,
698,698,2866,2021-10-08 17:14:06.637,0.0609588623046875,
699,699,2870,2021-10-08 17:14:06.641,-0.2324803670247396,
700,700,2874,2021-10-08 17:14:06.645,-0.1341692606608073,
701,701,2878,2021-10-08 17:14:06.649,-0.2034950256347656,
702,702,2882,2021-10-08 17:14:06.653,-0.4119205474853516,
703,703,2886,2021-10-08 17:14:06.657,-0.1736132303873698,
704,704,2890,2021-10-08 17:14:06.661,-0.3527545928955078,
705,705,2894,2021-10-08 17:14:06.665,-0.0990581512451172,
706,706,2898,2021-10-08 17:14:06.669,-0.121320088704427,
707,707,2902,2021-10-08 17:14:06.673,-0.344088872273763,
708,708,2906,2021-10-08 17:14:06.677,-0.0987593332926432,
709,709,2910,2021-10-08 17:14:06.681,-0.4270108540852865,
710,710,2914,2021-10-08 17:14:06.685,-0.3261597951253255,
711,711,2918,2021-10-08 17:14:06.689,-0.2281475067138672,
712,712,2922,2021-10-08 17:14:06.693,-0.2859687805175782,
713,713,2926,2021-10-08 17:14:06.697,-0.0076198577880859,
714,714,2930,2021-10-08 17:14:06.701,-0.35858154296875,
715,715,2934,2021-10-08 17:14:06.705,-0.2360661824544271,
716,716,2938,2021-10-08 17:14:06.709,-0.2997144063313802,
717,717,2942,2021-10-08 17:14:06.713,-0.4471810658772787,
718,718,2946,2021-10-08 17:14:06.717,-0.0115044911702473,
719,719,2950,2021-10-08 17:14:06.721,-0.2492141723632812,
720,720,2954,2021-10-08 17:14:06.725,-0.1344680786132812,
721,721,2958,2021-10-08 17:14:06.729,-0.200955073038737,
722,722,2962,2021-10-08 17:14:06.733,-0.379947026570638,
723,723,2966,2021-10-08 17:14:06.737,-0.1198259989420573,
724,724,2970,2021-10-08 17:14:06.741,-0.4256661732991537,
725,725,2974,2021-10-08 17:14:06.745,-0.1134014129638672,
726,726,2978,2021-10-08 17:14:06.749,-0.0333182017008463,
727,727,2982,2021-10-08 17:14:06.753,-0.229791005452474,
728,728,2986,2021-10-08 17:14:06.757,-0.021066665649414,
729,729,2990,2021-10-08 17:14:06.761,-0.3765106201171875,
730,730,2994,2021-10-08 17:14:06.765,-0.2780501047770182,
731,731,2998,2021-10-08 17:14:06.769,-0.2339744567871094,
732,732,3002,2021-10-08 17:14:06.773,-0.2484671274820963,
733,733,3006,2021-10-08 17:14:06.777,0.0760491689046224,
734,734,3010,2021-10-08 17:14:06.781,-0.2731196085611979,
735,735,3014,2021-10-08 17:14:06.785,-0.1643498738606771,
736,736,3018,2021-10-08 17:14:06.789,-0.1904964447021484,
737,737,3022,2021-10-08 17:14:06.793,-0.4077370961507162,
738,738,3026,2021-10-08 17:14:06.797,-0.1205730438232422,
739,739,3030,2021-10-08 17:14:06.801,-0.2904510498046875,
740,740,3034,2021-10-08 17:14:06.805,-0.0778420766194661,
741,741,3038,2021-10-08 17:14:06.809,0.0608094533284505,
742,742,3042,2021-10-08 17:14:06.813,-0.3581333160400391,
743,743,3046,2021-10-08 17:14:06.817,-0.1957257588704427,
744,744,3050,2021-10-08 17:14:06.821,-0.4555479685465495,
745,745,3054,2021-10-08 17:14:06.825,-0.32989501953125,
746,746,3058,2021-10-08 17:14:06.829,-0.0179290771484375,
747,747,3062,2021-10-08 17:14:06.833,-0.3058401743570964,
748,748,3066,2021-10-08 17:14:06.837,-0.0924841562906901,
749,749,3070,2021-10-08 17:14:06.841,-0.3245162963867188,
750,750,3074,2021-10-08 17:14:06.845,-0.3316879272460938,
751,751,3078,2021-10-08 17:14:06.849,-0.0670846303304036,
752,752,3082,2021-10-08 17:14:06.853,-0.3650061289469401,
753,753,3086,2021-10-08 17:14:06.857,-0.1370080312093099,
754,754,3090,2021-10-08 17:14:06.861,-0.1492595672607422,
755,755,3094,2021-10-08 17:14:06.865,-0.3508122762044271,
756,756,3098,2021-10-08 17:14:06.869,-0.0924841562906901,
757,757,3102,2021-10-08 17:14:06.873,-0.4299990336100261,
758,758,3106,2021-10-08 17:14:06.877,-0.2956803639729818,
759,759,3110,2021-10-08 17:14:06.881,-0.1582241058349609,
760,760,3114,2021-10-08 17:14:06.885,-0.2356179555257161,
761,761,3118,2021-10-08 17:14:06.889,0.028387705485026,
762,762,3122,2021-10-08 17:14:06.893,-0.3402042388916016,
763,763,3126,2021-10-08 17:14:06.897,-0.2169418334960937,
764,764,3130,2021-10-08 17:14:06.901,-0.244134267171224,
765,765,3134,2021-10-08 17:14:06.905,-0.4238732655843099,
766,766,3138,2021-10-08 17:14:06.909,-0.0095621744791666,
767,767,3142,2021-10-08 17:14:06.913,-0.236813227335612,
768,768,3146,2021-10-08 17:14:06.917,-0.1163895924886067,
769,769,3150,2021-10-08 17:14:06.921,-0.1754061381022135,
770,770,3154,2021-10-08 17:14:06.925,-0.3708330790201823,
771,771,3158,2021-10-08 17:14:06.929,-0.1464207967122396,
772,772,3162,2021-10-08 17:14:06.933,-0.4392623901367188,
773,773,3166,2021-10-08 17:14:06.937,-0.1332728068033854,
774,774,3170,2021-10-08 17:14:06.941,-0.0802326202392578,
775,775,3174,2021-10-08 17:14:06.945,-0.2768548329671224,
776,776,3178,2021-10-08 17:14:06.949,-0.0485579172770182,
777,777,3182,2021-10-08 17:14:06.953,-0.3857739766438802,
778,778,3186,2021-10-08 17:14:06.957,-0.2716255187988282,
779,779,3190,2021-10-08 17:14:06.961,-0.2774524688720703,
780,780,3194,2021-10-08 17:14:06.965,-0.2928415934244792,
781,781,3198,2021-10-08 17:14:06.969,0.0561777750651041,
782,782,3202,2021-10-08 17:14:06.973,-0.2916463216145833,
783,783,3206,2021-10-08 17:14:06.977,-0.1903470357259114,
784,784,3210,2021-10-08 17:14:06.981,-0.2145512898763021,
785,785,3214,2021-10-08 17:14:06.985,-0.4297002156575521,
786,786,3218,2021-10-08 17:14:06.989,-0.099805196126302,
787,787,3222,2021-10-08 17:14:06.993,-0.272970199584961,
788,788,3226,2021-10-08 17:14:06.997,-0.0981616973876953,
789,789,3230,2021-10-08 17:14:07.001,-0.1509030659993489,
790,790,3234,2021-10-08 17:14:07.005,-0.3593285878499349,
791,791,3238,2021-10-08 17:14:07.009,-0.0977134704589843,
792,792,3242,2021-10-08 17:14:07.013,-0.4428482055664063,
793,793,3246,2021-10-08 17:14:07.017,-0.236365000406901,
794,794,3250,2021-10-08 17:14:07.021,-0.0978628794352213,
795,795,3254,2021-10-08 17:14:07.025,-0.2188841501871745,
796,796,3258,2021-10-08 17:14:07.029,0.0119527180989583,
797,797,3262,2021-10-08 17:14:07.033,-0.365753173828125,
798,798,3266,2021-10-08 17:14:07.037,-0.258626937866211,
799,799,3270,2021-10-08 17:14:07.041,-0.3207810719807943,
800,800,3274,2021-10-08 17:14:07.045,-0.3493181864420573,
801,801,3278,2021-10-08 17:14:07.049,0.1134014129638672,
802,802,3282,2021-10-08 17:14:07.053,-0.1353645324707031,
803,803,3286,2021-10-08 17:14:07.057,-0.2693843841552735,
804,804,3290,2021-10-08 17:14:07.061,-0.0554307301839192,
805,805,3294,2021-10-08 17:14:07.065,-0.4622713724772136,
806,806,3298,2021-10-08 17:14:07.069,-0.4056453704833985,
807,807,3302,2021-10-08 17:14:07.073,-0.2911980946858724,
808,808,3306,2021-10-08 17:14:07.077,-0.3021049499511719,
809,809,3310,2021-10-08 17:14:07.081,0.013745625813802,
810,810,3314,2021-10-08 17:14:07.085,-0.3212292989095052,
811,811,3318,2021-10-08 17:14:07.089,-0.1945304870605469,
812,812,3322,2021-10-08 17:14:07.093,-0.2354685465494791,
813,813,3326,2021-10-08 17:14:07.097,-0.3983243306477865,
814,814,3330,2021-10-08 17:14:07.101,0.0231583913167317,
815,815,3334,2021-10-08 17:14:07.105,-0.2348709106445312,
816,816,3338,2021-10-08 17:14:07.109,-0.1280434926350911,
817,817,3342,2021-10-08 17:14:07.113,-0.1840718587239583,
818,818,3346,2021-10-08 17:14:07.117,-0.3868198394775391,
819,819,3350,2021-10-08 17:14:07.121,-0.1634534200032552,
820,820,3354,2021-10-08 17:14:07.125,-0.5103810628255209,
821,821,3358,2021-10-08 17:14:07.129,-0.1827271779378255,
822,822,3362,2021-10-08 17:14:07.133,-0.0182278951009114,
823,823,3366,2021-10-08 17:14:07.137,-0.0953229268391927,
824,824,3370,2021-10-08 17:14:07.141,0.243686040242513,
825,825,3374,2021-10-08 17:14:07.145,-0.0007470448811848,
826,826,3378,2021-10-08 17:14:07.149,0.1135508219401041,
827,827,3382,2021-10-08 17:14:07.153,0.0655905405680338,
828,828,3386,2021-10-08 17:14:07.157,-0.193634033203125,
829,829,3390,2021-10-08 17:14:07.161,-0.2666950225830078,
830,830,3394,2021-10-08 17:14:07.165,-0.9728018442789714,
831,831,3398,2021-10-08 17:14:07.169,-1.0567696889241538,
832,832,3402,2021-10-08 17:14:07.173,-0.9795252482096356,
833,833,3406,2021-10-08 17:14:07.177,-0.9028784434000652,
834,834,3410,2021-10-08 17:14:07.181,-0.2841758728027344,
835,835,3414,2021-10-08 17:14:07.185,-0.1154931386311849,
836,836,3418,2021-10-08 17:14:07.189,0.2825323740641276,
837,837,3422,2021-10-08 17:14:07.193,0.3049437204996745,
838,838,3426,2021-10-08 17:14:07.197,0.0337664286295572,
839,839,3430,2021-10-08 17:14:07.201,0.1725673675537109,
840,840,3434,2021-10-08 17:14:07.205,-0.2841758728027344,
841,841,3438,2021-10-08 17:14:07.209,-0.1102638244628906,
842,842,3442,2021-10-08 17:14:07.213,-0.021066665649414,
843,843,3446,2021-10-08 17:14:07.217,-0.1958751678466797,
844,844,3450,2021-10-08 17:14:07.221,0.0002988179524739,
845,845,3454,2021-10-08 17:14:07.225,-0.3760623931884766,
846,846,3458,2021-10-08 17:14:07.229,-0.2501106262207032,
847,847,3462,2021-10-08 17:14:07.233,-0.3164482116699219,
848,848,3466,2021-10-08 17:14:07.237,-0.4123687744140625,
849,849,3470,2021-10-08 17:14:07.241,0.0128491719563802,
850,850,3474,2021-10-08 17:14:07.245,-0.2764066060384115,
851,851,3478,2021-10-08 17:14:07.249,-0.1771990458170573,
852,852,3482,2021-10-08 17:14:07.253,-0.2335262298583984,
853,853,3486,2021-10-08 17:14:07.257,-0.4352283477783203,
854,854,3490,2021-10-08 17:14:07.261,-0.1910940806070963,
855,855,3494,2021-10-08 17:14:07.265,-0.3612709045410157,
856,856,3498,2021-10-08 17:14:07.269,-0.1024945576985677,
857,857,3502,2021-10-08 17:14:07.273,-0.1102638244628906,
858,858,3506,2021-10-08 17:14:07.277,-0.3180917104085287,
859,859,3510,2021-10-08 17:14:07.281,-0.0664869944254557,
860,860,3514,2021-10-08 17:14:07.285,-0.3886127471923828,
861,861,3518,2021-10-08 17:14:07.289,-0.2897040049235026,
862,862,3522,2021-10-08 17:14:07.293,-0.2037938435872396,
863,863,3526,2021-10-08 17:14:07.297,-0.2486165364583333,
864,864,3530,2021-10-08 17:14:07.301,0.0351111094156901,
865,865,3534,2021-10-08 17:14:07.305,-0.3272056579589844,
866,866,3538,2021-10-08 17:14:07.309,-0.207977294921875,
867,867,3542,2021-10-08 17:14:07.313,-0.2605692545572917,
868,868,3546,2021-10-08 17:14:07.317,-0.4149087270100912,
869,869,3550,2021-10-08 17:14:07.321,0.0255489349365234,
870,870,3554,2021-10-08 17:14:07.325,-0.2212746938069661,
871,871,3558,2021-10-08 17:14:07.329,-0.1051839192708333,
872,872,3562,2021-10-08 17:14:07.333,-0.1743602752685547,
873,873,3566,2021-10-08 17:14:07.337,-0.380395253499349,
874,874,3570,2021-10-08 17:14:07.341,-0.1332728068033854,
875,875,3574,2021-10-08 17:14:07.345,-0.4562950134277344,
876,876,3578,2021-10-08 17:14:07.349,-0.1404444376627604,
877,877,3582,2021-10-08 17:14:07.353,-0.0600624084472656,
878,878,3586,2021-10-08 17:14:07.357,-0.265350341796875,
879,879,3590,2021-10-08 17:14:07.361,-0.0587177276611328,
880,880,3594,2021-10-08 17:14:07.365,-0.416103998819987,
881,881,3598,2021-10-08 17:14:07.369,-0.3239186604817708,
882,882,3602,2021-10-08 17:14:07.373,-0.2792453765869141,
883,883,3606,2021-10-08 17:14:07.377,-0.2838770548502604,
884,884,3610,2021-10-08 17:14:07.381,0.0403404235839843,
885,885,3614,2021-10-08 17:14:07.385,-0.3237692515055339,
886,886,3618,2021-10-08 17:14:07.389,-0.2309862772623698,
887,887,3622,2021-10-08 17:14:07.393,-0.2631092071533203,
888,888,3626,2021-10-08 17:14:07.397,-0.4649607340494792,
889,889,3630,2021-10-08 17:14:07.401,-0.1798884073893229,
890,890,3634,2021-10-08 17:14:07.405,-0.3509616851806641,
891,891,3638,2021-10-08 17:14:07.409,-0.1346174875895182,
892,892,3642,2021-10-08 17:14:07.413,-0.1556841532389323,
893,893,3646,2021-10-08 17:14:07.417,-0.3536510467529297,
894,894,3650,2021-10-08 17:14:07.421,-0.0836690266927083,
895,895,3654,2021-10-08 17:14:07.425,-0.4410552978515625,
896,896,3658,2021-10-08 17:14:07.429,-0.208126703898112,
897,897,3662,2021-10-08 17:14:07.433,-0.0718657175699869,
898,898,3666,2021-10-08 17:14:07.437,-0.2284463246663411,
899,899,3670,2021-10-08 17:14:07.441,-0.0008964538574218,
900,900,3674,2021-10-08 17:14:07.445,-0.3538004557291667,
901,901,3678,2021-10-08 17:14:07.449,-0.2055867513020833,
902,902,3682,2021-10-08 17:14:07.453,-0.2480189005533854,
903,903,3686,2021-10-08 17:14:07.457,-0.3354231516520182,
904,904,3690,2021-10-08 17:14:07.461,0.1316293080647786,
905,905,3694,2021-10-08 17:14:07.465,-0.1087697347005208,
906,906,3698,2021-10-08 17:14:07.469,-0.2396519978841146,
907,907,3702,2021-10-08 17:14:07.473,-0.1410420735677083,
908,908,3706,2021-10-08 17:14:07.477,-0.4634666442871094,
909,909,3710,2021-10-08 17:14:07.481,-0.2276992797851562,
910,910,3714,2021-10-08 17:14:07.485,-0.2663962046305339,
911,911,3718,2021-10-08 17:14:07.489,-0.1559829711914062,
912,912,3722,2021-10-08 17:14:07.493,-0.0017929077148437,
913,913,3726,2021-10-08 17:14:07.497,-0.337365468343099,
914,914,3730,2021-10-08 17:14:07.501,-0.1183319091796875,
915,915,3734,2021-10-08 17:14:07.505,-0.3415489196777344,
916,916,3738,2021-10-08 17:14:07.509,-0.3765106201171875,
917,917,3742,2021-10-08 17:14:07.513,-0.0814278920491536,
918,918,3746,2021-10-08 17:14:07.517,-0.2646032969156901,
919,919,3750,2021-10-08 17:14:07.521,-0.0230089823404947,
920,920,3754,2021-10-08 17:14:07.525,-0.293738047281901,
921,921,3758,2021-10-08 17:14:07.529,-0.3355725606282552,
922,922,3762,2021-10-08 17:14:07.533,-0.1960245768229166,
923,923,3766,2021-10-08 17:14:07.537,-0.4679489135742188,
924,924,3770,2021-10-08 17:14:07.541,-0.0412368774414062,
925,925,3774,2021-10-08 17:14:07.545,-0.1679356892903646,
926,926,3778,2021-10-08 17:14:07.549,-0.214850107828776,
927,927,3782,2021-10-08 17:14:07.553,-0.1030921936035156,
928,928,3786,2021-10-08 17:14:07.557,-0.4211839040120443,
929,929,3790,2021-10-08 17:14:07.561,-0.1885541280110677,
930,930,3794,2021-10-08 17:14:07.565,-0.3923479715983073,
931,931,3798,2021-10-08 17:14:07.569,-0.2312850952148437,
932,932,3802,2021-10-08 17:14:07.573,0.0375016530354817,
933,933,3806,2021-10-08 17:14:07.577,-0.2874628702799479,
934,934,3810,2021-10-08 17:14:07.581,-0.0883007049560547,
935,935,3814,2021-10-08 17:14:07.585,-0.3215281168619792,
936,936,3818,2021-10-08 17:14:07.589,-0.3847281138102214,
937,937,3822,2021-10-08 17:14:07.593,-0.1544888814290364,
938,938,3826,2021-10-08 17:14:07.597,-0.3254127502441407,
939,939,3830,2021-10-08 17:14:07.601,-0.0440756479899088,
940,940,3834,2021-10-08 17:14:07.605,-0.2611668904622396,
941,941,3838,2021-10-08 17:14:07.609,-0.2956803639729818,
942,942,3842,2021-10-08 17:14:07.613,-0.0995063781738281,
943,943,3846,2021-10-08 17:14:07.617,-0.423126220703125,
944,944,3850,2021-10-08 17:14:07.621,-0.1268482208251953,
945,945,3854,2021-10-08 17:14:07.625,-0.1945304870605469,
946,946,3858,2021-10-08 17:14:07.629,-0.1909446716308594,
947,947,3862,2021-10-08 17:14:07.633,-0.0470638275146484,
948,948,3866,2021-10-08 17:14:07.637,-0.3824869791666667,
949,949,3870,2021-10-08 17:14:07.641,-0.1494089762369791,
950,950,3874,2021-10-08 17:14:07.645,-0.3844292958577474,
951,951,3878,2021-10-08 17:14:07.649,-0.2967262268066407,
952,952,3882,2021-10-08 17:14:07.653,0.0189749399820963,
953,953,3886,2021-10-08 17:14:07.657,-0.287313461303711,
954,954,3890,2021-10-08 17:14:07.661,-0.092932383219401,
955,955,3894,2021-10-08 17:14:07.665,-0.3021049499511719,
956,956,3898,2021-10-08 17:14:07.669,-0.337216059366862,
957,957,3902,2021-10-08 17:14:07.673,-0.1816813151041666,
958,958,3906,2021-10-08 17:14:07.677,-0.3720283508300782,
959,959,3910,2021-10-08 17:14:07.681,0.0113550821940104,
960,960,3914,2021-10-08 17:14:07.685,-0.1653957366943359,
961,961,3918,2021-10-08 17:14:07.689,-0.2527999877929688,
962,962,3922,2021-10-08 17:14:07.693,-0.107574462890625,
963,963,3926,2021-10-08 17:14:07.697,-0.445089340209961,
964,964,3930,2021-10-08 17:14:07.701,-0.2233664194742838,
965,965,3934,2021-10-08 17:14:07.705,-0.257879892985026,
966,966,3938,2021-10-08 17:14:07.709,-0.1942316691080729,
967,967,3942,2021-10-08 17:14:07.713,-0.0061257680257161,
968,968,3946,2021-10-08 17:14:07.717,-0.3399054209391276,
969,969,3950,2021-10-08 17:14:07.721,-0.1190789540608724,
970,970,3954,2021-10-08 17:14:07.725,-0.2922439575195313,
971,971,3958,2021-10-08 17:14:07.729,-0.3024037679036458,
972,972,3962,2021-10-08 17:14:07.733,-0.1419385274251302,
973,973,3966,2021-10-08 17:14:07.737,-0.3623167673746745,
974,974,3970,2021-10-08 17:14:07.741,0.0073210398356119,
975,975,3974,2021-10-08 17:14:07.745,-0.1730155944824219,
976,976,3978,2021-10-08 17:14:07.749,-0.2889569600423177,
977,977,3982,2021-10-08 17:14:07.753,-0.1253541310628255,
978,978,3986,2021-10-08 17:14:07.757,-0.4743734995524089,
979,979,3990,2021-10-08 17:14:07.761,-0.1973692576090495,
980,980,3994,2021-10-08 17:14:07.765,-0.2072302500406901,
981,981,3998,2021-10-08 17:14:07.769,-0.2102184295654297,
982,982,4002,2021-10-08 17:14:07.773,-0.0452709197998046,
983,983,4006,2021-10-08 17:14:07.777,-0.3921985626220703,
984,984,4010,2021-10-08 17:14:07.781,-0.1742108662923177,
985,985,4014,2021-10-08 17:14:07.785,-0.3821881612141927,
986,986,4018,2021-10-08 17:14:07.789,-0.3113683064778646,
987,987,4022,2021-10-08 17:14:07.793,0.0391451517740885,
988,988,4026,2021-10-08 17:14:07.797,-0.2545928955078125,
989,989,4030,2021-10-08 17:14:07.801,-0.0773938496907552,
990,990,4034,2021-10-08 17:14:07.805,-0.301357905069987,
991,991,4038,2021-10-08 17:14:07.809,-0.4391129811604818,
992,992,4042,2021-10-08 17:14:07.813,-0.2779006958007813,
993,993,4046,2021-10-08 17:14:07.817,-0.4710865020751953,
994,994,4050,2021-10-08 17:14:07.821,-0.0860595703125,
995,995,4054,2021-10-08 17:14:07.825,-0.1955763498942057,
996,996,4058,2021-10-08 17:14:07.829,-0.3264586130777995,
997,997,4062,2021-10-08 17:14:07.833,-0.0727621714274088,
998,998,4066,2021-10-08 17:14:07.837,-0.3128623962402344,
999,999,4070,2021-10-08 17:14:07.841,-0.0162855784098307,
1000,1000,4074,2021-10-08 17:14:07.845,0.0987593332926432,
1001,1001,4078,2021-10-08 17:14:07.849,0.179141362508138,
1002,1002,4082,2021-10-08 17:14:07.853,0.5333900451660157,
1003,1003,4086,2021-10-08 17:14:07.857,0.0811290740966797,
1004,1004,4090,2021-10-08 17:14:07.861,-0.2233664194742838,
1005,1005,4094,2021-10-08 17:14:07.865,-0.5941994984944662,
1006,1006,4098,2021-10-08 17:14:07.869,-1.1716651916503908,
1007,1007,4102,2021-10-08 17:14:07.873,-0.8839035034179689,
1008,1008,4106,2021-10-08 17:14:07.877,-0.9139347076416016,
1009,1009,4110,2021-10-08 17:14:07.881,-0.5930042266845704,
1010,1010,4114,2021-10-08 17:14:07.885,-0.2353191375732422,
1011,1011,4118,2021-10-08 17:14:07.889,-0.1945304870605469,
1012,1012,4122,2021-10-08 17:14:07.893,0.2164936065673828,
1013,1013,4126,2021-10-08 17:14:07.897,-0.0019423166910807,
1014,1014,4130,2021-10-08 17:14:07.901,0.1831754048665364,
1015,1015,4134,2021-10-08 17:14:07.905,0.2314345041910807,
1016,1016,4138,2021-10-08 17:14:07.909,-0.1382033030192057,
1017,1017,4142,2021-10-08 17:14:07.913,0.0253995259602864,
1018,1018,4146,2021-10-08 17:14:07.917,-0.315252939860026,
1019,1019,4150,2021-10-08 17:14:07.921,-0.2970250447591146,
1020,1020,4154,2021-10-08 17:14:07.925,-0.2214241027832031,
1021,1021,4158,2021-10-08 17:14:07.929,-0.2980709075927735,
1022,1022,4162,2021-10-08 17:14:07.933,0.0582695007324218,
1023,1023,4166,2021-10-08 17:14:07.937,-0.2572822570800782,
1024,1024,4170,2021-10-08 17:14:07.941,-0.2492141723632812,
1025,1025,4174,2021-10-08 17:14:07.945,-0.2090231577555338,
1026,1026,4178,2021-10-08 17:14:07.949,-0.5066458384195964,
1027,1027,4182,2021-10-08 17:14:07.953,-0.1553853352864583,
1028,1028,4186,2021-10-08 17:14:07.957,-0.2692349751790365,
1029,1029,4190,2021-10-08 17:14:07.961,-0.1594193776448567,
1030,1030,4194,2021-10-08 17:14:07.965,-0.1198259989420573,
1031,1031,4198,2021-10-08 17:14:07.969,-0.3902562459309896,
1032,1032,4202,2021-10-08 17:14:07.973,-0.107723871866862,
1033,1033,4206,2021-10-08 17:14:07.977,-0.4065418243408203,
1034,1034,4210,2021-10-08 17:14:07.981,-0.2556387583414714,
1035,1035,4214,2021-10-08 17:14:07.985,-0.0469144185384114,
1036,1036,4218,2021-10-08 17:14:07.989,-0.2699820200602214,
1037,1037,4222,2021-10-08 17:14:07.993,-0.0484085083007812,
1038,1038,4226,2021-10-08 17:14:07.997,-0.3560415903727214,
1039,1039,4230,2021-10-08 17:14:08.001,-0.2695337931315104,
1040,1040,4234,2021-10-08 17:14:08.005,-0.2034950256347656,
1041,1041,4238,2021-10-08 17:14:08.009,-0.4361248016357422,
1042,1042,4242,2021-10-08 17:14:08.013,-0.0110562642415364,
1043,1043,4246,2021-10-08 17:14:08.017,-0.215447743733724,
1044,1044,4250,2021-10-08 17:14:08.021,-0.1698780059814453,
1045,1045,4254,2021-10-08 17:14:08.025,-0.1561323801676432,
1046,1046,4258,2021-10-08 17:14:08.029,-0.4108746846516927,
1047,1047,4262,2021-10-08 17:14:08.033,-0.1193777720133463,
1048,1048,4266,2021-10-08 17:14:08.037,-0.4132652282714844,
1049,1049,4270,2021-10-08 17:14:08.041,-0.2127583821614583,
1050,1050,4274,2021-10-08 17:14:08.045,-0.0176302591959635,
1051,1051,4278,2021-10-08 17:14:08.049,-0.2613162994384766,
1052,1052,4282,2021-10-08 17:14:08.053,-0.0413862864176432,
1053,1053,4286,2021-10-08 17:14:08.057,-0.3635120391845703,
1054,1054,4290,2021-10-08 17:14:08.061,-0.3318373362223307,
1055,1055,4294,2021-10-08 17:14:08.065,-0.2547423044840495,
1056,1056,4298,2021-10-08 17:14:08.069,-0.3264586130777995,
1057,1057,4302,2021-10-08 17:14:08.073,0.0337664286295572,
1058,1058,4306,2021-10-08 17:14:08.077,-0.2786477406819662,
1059,1059,4310,2021-10-08 17:14:08.081,-0.2565352121988932,
1060,1060,4314,2021-10-08 17:14:08.085,-0.2194817860921224,
1061,1061,4318,2021-10-08 17:14:08.089,-0.4688453674316407,
1062,1062,4322,2021-10-08 17:14:08.093,-0.2033456166585286,
1063,1063,4326,2021-10-08 17:14:08.097,-0.351409912109375,
1064,1064,4330,2021-10-08 17:14:08.101,-0.1679356892903646,
1065,1065,4334,2021-10-08 17:14:08.105,-0.1017475128173828,
1066,1066,4338,2021-10-08 17:14:08.109,-0.3808434804280599,
1067,1067,4342,2021-10-08 17:14:08.113,-0.128939946492513,
1068,1068,4346,2021-10-08 17:14:08.117,-0.4470316569010417,
1069,1069,4350,2021-10-08 17:14:08.121,-0.2535470326741537,
1070,1070,4354,2021-10-08 17:14:08.125,-0.0242042541503906,
1071,1071,4358,2021-10-08 17:14:08.129,-0.1697285970052083,
1072,1072,4362,2021-10-08 17:14:08.133,0.0679810841878255,
1073,1073,4366,2021-10-08 17:14:08.137,-0.2771536509195964,
1074,1074,4370,2021-10-08 17:14:08.141,-0.1930363972981771,
1075,1075,4374,2021-10-08 17:14:08.145,-0.222320556640625,
1076,1076,4378,2021-10-08 17:14:08.149,-0.4144605000813802,
1077,1077,4382,2021-10-08 17:14:08.153,0.0310770670572916,
1078,1078,4386,2021-10-08 17:14:08.157,-0.2229181925455729,
1079,1079,4390,2021-10-08 17:14:08.161,-0.1639016469319661,
1080,1080,4394,2021-10-08 17:14:08.165,-0.1925881703694661,
1081,1081,4398,2021-10-08 17:14:08.169,-0.4289531707763672,
1082,1082,4402,2021-10-08 17:14:08.173,-0.1955763498942057,
1083,1083,4406,2021-10-08 17:14:08.177,-0.3690401713053385,
1084,1084,4410,2021-10-08 17:14:08.181,-0.121469497680664,
1085,1085,4414,2021-10-08 17:14:08.185,-0.0763479868570963,
1086,1086,4418,2021-10-08 17:14:08.189,-0.301059087117513,
1087,1087,4422,2021-10-08 17:14:08.193,-0.0519943237304687,
1088,1088,4426,2021-10-08 17:14:08.197,-0.3506628672281901,
1089,1089,4430,2021-10-08 17:14:08.201,-0.2598222096761068,
1090,1090,4434,2021-10-08 17:14:08.205,-0.1878070831298828,
1091,1091,4438,2021-10-08 17:14:08.209,-0.2445824940999349,
1092,1092,4442,2021-10-08 17:14:08.213,0.0482590993245442,
1093,1093,4446,2021-10-08 17:14:08.217,-0.3128623962402344,
1094,1094,4450,2021-10-08 17:14:08.221,-0.2339744567871094,
1095,1095,4454,2021-10-08 17:14:08.225,-0.2613162994384766,
1096,1096,4458,2021-10-08 17:14:08.229,-0.4389635721842448,
1097,1097,4462,2021-10-08 17:14:08.233,-0.0091139475504557,
1098,1098,4466,2021-10-08 17:14:08.237,-0.2356179555257161,
1099,1099,4470,2021-10-08 17:14:08.241,-0.1429843902587891,
1100,1100,4474,2021-10-08 17:14:08.245,-0.200506846110026,
1101,1101,4478,2021-10-08 17:14:08.249,-0.4189427693684896,
1102,1102,4482,2021-10-08 17:14:08.253,-0.1512018839518229,
1103,1103,4486,2021-10-08 17:14:08.257,-0.4597314198811849,
1104,1104,4490,2021-10-08 17:14:08.261,-0.1752567291259766,
1105,1105,4494,2021-10-08 17:14:08.265,-0.0533390045166015,
1106,1106,4498,2021-10-08 17:14:08.269,-0.2530988057454427,
1107,1107,4502,2021-10-08 17:14:08.273,-0.0467650095621744,
1108,1108,4506,2021-10-08 17:14:08.277,-0.3850269317626953,
1109,1109,4510,2021-10-08 17:14:08.281,-0.3128623962402344,
1110,1110,4514,2021-10-08 17:14:08.285,-0.2758089701334635,
1111,1111,4518,2021-10-08 17:14:08.289,-0.2877616882324219,
1112,1112,4522,2021-10-08 17:14:08.293,0.0479602813720703,
1113,1113,4526,2021-10-08 17:14:08.297,-0.2828311920166016,
1114,1114,4530,2021-10-08 17:14:08.301,-0.1966222127278646,
1115,1115,4534,2021-10-08 17:14:08.305,-0.2120113372802734,
1116,1116,4538,2021-10-08 17:14:08.309,-0.4299990336100261,
1117,1117,4542,2021-10-08 17:14:08.313,-0.15777587890625,
1118,1118,4546,2021-10-08 17:14:08.317,-0.294485092163086,
1119,1119,4550,2021-10-08 17:14:08.321,-0.0860595703125,
1120,1120,4554,2021-10-08 17:14:08.325,-0.0974146525065104,
1121,1121,4558,2021-10-08 17:14:08.329,-0.3131612141927083,
1122,1122,4562,2021-10-08 17:14:08.333,-0.0745550791422526,
1123,1123,4566,2021-10-08 17:14:08.337,-0.4418023427327474,
1124,1124,4570,2021-10-08 17:14:08.341,-0.2353191375732422,
1125,1125,4574,2021-10-08 17:14:08.345,-0.0942770640055338,
1126,1126,4578,2021-10-08 17:14:08.349,-0.265649159749349,
1127,1127,4582,2021-10-08 17:14:08.353,-0.0325711568196614,
1128,1128,4586,2021-10-08 17:14:08.357,-0.365902582804362,
1129,1129,4590,2021-10-08 17:14:08.361,-0.2324803670247396,
1130,1130,4594,2021-10-08 17:14:08.365,-0.2686373392740885,
1131,1131,4598,2021-10-08 17:14:08.369,-0.3916009267171224,
1132,1132,4602,2021-10-08 17:14:08.373,0.028238296508789,
1133,1133,4606,2021-10-08 17:14:08.377,-0.2481683095296224,
1134,1134,4610,2021-10-08 17:14:08.381,-0.1553853352864583,
1135,1135,4614,2021-10-08 17:14:08.385,-0.1851177215576172,
1136,1136,4618,2021-10-08 17:14:08.389,-0.3911526997884115,
1137,1137,4622,2021-10-08 17:14:08.393,-0.1111602783203125,
1138,1138,4626,2021-10-08 17:14:08.397,-0.2399508158365885,
1139,1139,4630,2021-10-08 17:14:08.401,-0.2339744567871094,
1140,1140,4634,2021-10-08 17:14:08.405,-0.0944264729817708,
1141,1141,4638,2021-10-08 17:14:08.409,-0.4244709014892578,
1142,1142,4642,2021-10-08 17:14:08.413,-0.1754061381022135,
1143,1143,4646,2021-10-08 17:14:08.417,-0.3306420644124349,
1144,1144,4650,2021-10-08 17:14:08.421,-0.3688907623291016,
1145,1145,4654,2021-10-08 17:14:08.425,-0.085461934407552,
1146,1146,4658,2021-10-08 17:14:08.429,-0.258328119913737,
1147,1147,4662,2021-10-08 17:14:08.433,-0.0062751770019531,
1148,1148,4666,2021-10-08 17:14:08.437,-0.2314345041910807,
1149,1149,4670,2021-10-08 17:14:08.441,-0.2779006958007813,
1150,1150,4674,2021-10-08 17:14:08.445,-0.0306288401285807,
1151,1151,4678,2021-10-08 17:14:08.449,-0.4084841410319011,
1152,1152,4682,2021-10-08 17:14:08.453,-0.1737626393636067,
1153,1153,4686,2021-10-08 17:14:08.457,-0.1060803731282552,
1154,1154,4690,2021-10-08 17:14:08.461,-0.2995649973551432,
1155,1155,4694,2021-10-08 17:14:08.465,-0.0756009419759114,
1156,1156,4698,2021-10-08 17:14:08.469,-0.4044500986735027,
1157,1157,4702,2021-10-08 17:14:08.473,-0.2877616882324219,
1158,1158,4706,2021-10-08 17:14:08.477,-0.3047943115234375,
1159,1159,4710,2021-10-08 17:14:08.481,-0.3243668874104818,
1160,1160,4714,2021-10-08 17:14:08.485,0.0615564982096354,
1161,1161,4718,2021-10-08 17:14:08.489,-0.258029301961263,
1162,1162,4722,2021-10-08 17:14:08.493,-0.1712226867675781,
1163,1163,4726,2021-10-08 17:14:08.497,-0.0318241119384765,
1164,1164,4730,2021-10-08 17:14:08.501,-0.4533068339029948,
1165,1165,4734,2021-10-08 17:14:08.505,-0.2259063720703125,
1166,1166,4738,2021-10-08 17:14:08.509,-0.2750619252522787,
1167,1167,4742,2021-10-08 17:14:08.513,-0.2281475067138672,
1168,1168,4746,2021-10-08 17:14:08.517,-0.0623035430908203,
1169,1169,4750,2021-10-08 17:14:08.521,-0.3818893432617188,
1170,1170,4754,2021-10-08 17:14:08.525,-0.1625569661458333,
1171,1171,4758,2021-10-08 17:14:08.529,-0.4044500986735027,
1172,1172,4762,2021-10-08 17:14:08.533,-0.4152075449625652,
1173,1173,4766,2021-10-08 17:14:08.537,-0.0409380594889322,
1174,1174,4770,2021-10-08 17:14:08.541,-0.1760037740071614,
1175,1175,4774,2021-10-08 17:14:08.545,0.1529947916666666,
1176,1176,4778,2021-10-08 17:14:08.549,0.042880376180013,
1177,1177,4782,2021-10-08 17:14:08.553,0.0760491689046224,
1178,1178,4786,2021-10-08 17:14:08.557,0.2045408884684245,
1179,1179,4790,2021-10-08 17:14:08.561,-0.1007016499837239,
1180,1180,4794,2021-10-08 17:14:08.565,-0.0156879425048828,
1181,1181,4798,2021-10-08 17:14:08.569,-0.6022675832112631,
1182,1182,4802,2021-10-08 17:14:08.573,-1.0522874196370444,
1183,1183,4806,2021-10-08 17:14:08.577,-1.0418287913004558,
1184,1184,4810,2021-10-08 17:14:08.581,-1.1456680297851565,
1185,1185,4814,2021-10-08 17:14:08.585,-0.610036849975586,
1186,1186,4818,2021-10-08 17:14:08.589,-0.3358713785807292,
1187,1187,4822,2021-10-08 17:14:08.593,0.092932383219401,
1188,1188,4826,2021-10-08 17:14:08.597,0.4604784647623698,
1189,1189,4830,2021-10-08 17:14:08.601,0.1607640584309896,
1190,1190,4834,2021-10-08 17:14:08.605,0.2755101521809896,
1191,1191,4838,2021-10-08 17:14:08.609,-0.0681304931640625,
1192,1192,4842,2021-10-08 17:14:08.613,-0.2118619283040365,
1193,1193,4846,2021-10-08 17:14:08.617,0.0288359324137369,
1194,1194,4850,2021-10-08 17:14:08.621,-0.2027479807535807,
1195,1195,4854,2021-10-08 17:14:08.625,0.0053787231445312,
1196,1196,4858,2021-10-08 17:14:08.629,-0.2505588531494141,
1197,1197,4862,2021-10-08 17:14:08.633,-0.315701166788737,
1198,1198,4866,2021-10-08 17:14:08.637,-0.1745096842447916,
1199,1199,4870,2021-10-08 17:14:08.641,-0.5000718434651693,
1200,1200,4874,2021-10-08 17:14:08.645,-0.143582026163737,
1201,1201,4878,2021-10-08 17:14:08.649,-0.215447743733724,
1202,1202,4882,2021-10-08 17:14:08.653,-0.2238146464029948,
1203,1203,4886,2021-10-08 17:14:08.657,-0.0986099243164062,
1204,1204,4890,2021-10-08 17:14:08.661,-0.4241720835367839,
1205,1205,4894,2021-10-08 17:14:08.665,-0.2155971527099609,
1206,1206,4898,2021-10-08 17:14:08.669,-0.4002666473388672,
1207,1207,4902,2021-10-08 17:14:08.673,-0.2430884043375651,
1208,1208,4906,2021-10-08 17:14:08.677,0.0124009450276692,
1209,1209,4910,2021-10-08 17:14:08.681,-0.3028519948323568,
1210,1210,4914,2021-10-08 17:14:08.685,-0.1007016499837239,
1211,1211,4918,2021-10-08 17:14:08.689,-0.3325843811035157,
1212,1212,4922,2021-10-08 17:14:08.693,-0.373074213663737,
1213,1213,4926,2021-10-08 17:14:08.697,-0.1979668935139974,
1214,1214,4930,2021-10-08 17:14:08.701,-0.3493181864420573,
1215,1215,4934,2021-10-08 17:14:08.705,-0.0270430246988932,
1216,1216,4938,2021-10-08 17:14:08.709,-0.2348709106445312,
1217,1217,4942,2021-10-08 17:14:08.713,-0.2741654713948568,
1218,1218,4946,2021-10-08 17:14:08.717,-0.1084709167480468,
1219,1219,4950,2021-10-08 17:14:08.721,-0.4434458414713542,
1220,1220,4954,2021-10-08 17:14:08.725,-0.1420879364013672,
1221,1221,4958,2021-10-08 17:14:08.729,-0.1913928985595703,
1222,1222,4962,2021-10-08 17:14:08.733,-0.1640510559082031,
1223,1223,4966,2021-10-08 17:14:08.737,-0.0298817952473958,
1224,1224,4970,2021-10-08 17:14:08.741,-0.3533522288004557,
1225,1225,4974,2021-10-08 17:14:08.745,-0.1113096872965495,
1226,1226,4978,2021-10-08 17:14:08.749,-0.3361701965332032,
1227,1227,4982,2021-10-08 17:14:08.753,-0.3037484486897787,
1228,1228,4986,2021-10-08 17:14:08.757,0.0010458628336588,
1229,1229,4990,2021-10-08 17:14:08.761,-0.2626609802246094,
1230,1230,4994,2021-10-08 17:14:08.765,-0.0742562611897786,
1231,1231,4998,2021-10-08 17:14:08.769,-0.3198846181233724,
1232,1232,5002,2021-10-08 17:14:08.773,-0.3508122762044271,
1233,1233,5006,2021-10-08 17:14:08.777,-0.2342732747395833,
1234,1234,5010,2021-10-08 17:14:08.781,-0.4178969065348308,
1235,1235,5014,2021-10-08 17:14:08.785,-0.0375016530354817,
1236,1236,5018,2021-10-08 17:14:08.789,-0.2284463246663411,
1237,1237,5022,2021-10-08 17:14:08.793,-0.293738047281901,
1238,1238,5026,2021-10-08 17:14:08.797,-0.1683839162190755,
1239,1239,5030,2021-10-08 17:14:08.801,-0.47332763671875,
1240,1240,5034,2021-10-08 17:14:08.805,-0.265798568725586,
1241,1241,5038,2021-10-08 17:14:08.809,-0.3744188944498698,
1242,1242,5042,2021-10-08 17:14:08.813,-0.2460765838623047,
1243,1243,5046,2021-10-08 17:14:08.817,-0.0385475158691406,
1244,1244,5050,2021-10-08 17:14:08.821,-0.3594779968261719,
1245,1245,5054,2021-10-08 17:14:08.825,-0.1305834452311198,
1246,1246,5058,2021-10-08 17:14:08.829,-0.3502146402994792,
1247,1247,5062,2021-10-08 17:14:08.833,-0.3723271687825521,
1248,1248,5066,2021-10-08 17:14:08.837,-0.0494543711344401,
1249,1249,5070,2021-10-08 17:14:08.841,-0.2279980977376302,
1250,1250,5074,2021-10-08 17:14:08.845,0.0135962168375651,
1251,1251,5078,2021-10-08 17:14:08.849,-0.2281475067138672,
1252,1252,5082,2021-10-08 17:14:08.853,-0.2631092071533203,
1253,1253,5086,2021-10-08 17:14:08.857,0.0318241119384765,
1254,1254,5090,2021-10-08 17:14:08.861,-0.3741200764973958,
1255,1255,5094,2021-10-08 17:14:08.865,-0.1780954996744791,
1256,1256,5098,2021-10-08 17:14:08.869,-0.0920359293619791,
1257,1257,5102,2021-10-08 17:14:08.873,-0.2602704366048177,
1258,1258,5106,2021-10-08 17:14:08.877,-0.0321229298909505,
1259,1259,5110,2021-10-08 17:14:08.881,-0.3624661763509115,
1260,1260,5114,2021-10-08 17:14:08.885,-0.2643044789632162,
1261,1261,5118,2021-10-08 17:14:08.889,-0.2575810750325521,
1262,1262,5122,2021-10-08 17:14:08.893,-0.2668444315592448,
1263,1263,5126,2021-10-08 17:14:08.897,0.0747044881184895,
1264,1264,5130,2021-10-08 17:14:08.901,-0.2675914764404297,
1265,1265,5134,2021-10-08 17:14:08.905,-0.186611811319987,
1266,1266,5138,2021-10-08 17:14:08.909,-0.2202288309733073,
1267,1267,5142,2021-10-08 17:14:08.913,-0.4183451334635417,
1268,1268,5146,2021-10-08 17:14:08.917,-0.1335716247558594,
1269,1269,5150,2021-10-08 17:14:08.921,-0.3007602691650391,
1270,1270,5154,2021-10-08 17:14:08.925,-0.1021957397460937,
1271,1271,5158,2021-10-08 17:14:08.929,-0.1226647694905599,
1272,1272,5162,2021-10-08 17:14:08.933,-0.32989501953125,
1273,1273,5166,2021-10-08 17:14:08.937,-0.0793361663818359,
1274,1274,5170,2021-10-08 17:14:08.941,-0.4421011606852214,
1275,1275,5174,2021-10-08 17:14:08.945,-0.2320321400960286,
1276,1276,5178,2021-10-08 17:14:08.949,-0.0963687896728515,
1277,1277,5182,2021-10-08 17:14:08.953,-0.2525011698404948,
1278,1278,5186,2021-10-08 17:14:08.957,-0.0389957427978515,
1279,1279,5190,2021-10-08 17:14:08.961,-0.394887924194336,
1280,1280,5194,2021-10-08 17:14:08.965,-0.2527999877929688,
1281,1281,5198,2021-10-08 17:14:08.969,-0.2329285939534505,
1282,1282,5202,2021-10-08 17:14:08.973,-0.4255167643229167,
1283,1283,5206,2021-10-08 17:14:08.977,-0.0869560241699218,
1284,1284,5210,2021-10-08 17:14:08.981,-0.265350341796875,
1285,1285,5214,2021-10-08 17:14:08.985,-0.100552241007487,
1286,1286,5218,2021-10-08 17:14:08.989,-0.1513512929280599,
1287,1287,5222,2021-10-08 17:14:08.993,-0.3564898173014323,
1288,1288,5226,2021-10-08 17:14:08.997,-0.1523971557617187,
1289,1289,5230,2021-10-08 17:14:09.001,-0.4116217295328777,
1290,1290,5234,2021-10-08 17:14:09.005,-0.1156425476074218,
1291,1291,5238,2021-10-08 17:14:09.009,-0.0853125254313151,
1292,1292,5242,2021-10-08 17:14:09.013,-0.2968756357828776,
1293,1293,5246,2021-10-08 17:14:09.017,-0.0681304931640625,
1294,1294,5250,2021-10-08 17:14:09.021,-0.3908538818359375,
1295,1295,5254,2021-10-08 17:14:09.025,-0.2914969126383464,
1296,1296,5258,2021-10-08 17:14:09.029,-0.2456283569335937,
1297,1297,5262,2021-10-08 17:14:09.033,-0.2640056610107422,
1298,1298,5266,2021-10-08 17:14:09.037,0.0421333312988281,
1299,1299,5270,2021-10-08 17:14:09.041,-0.3100236256917318,
1300,1300,5274,2021-10-08 17:14:09.045,-0.2127583821614583,
1301,1301,5278,2021-10-08 17:14:09.049,-0.2359167734781901,
1302,1302,5282,2021-10-08 17:14:09.053,-0.4386647542317708,
1303,1303,5286,2021-10-08 17:14:09.057,-0.071118672688802,
1304,1304,5290,2021-10-08 17:14:09.061,-0.251305898030599,
1305,1305,5294,2021-10-08 17:14:09.065,-0.1020463307698567,
1306,1306,5298,2021-10-08 17:14:09.069,-0.1571782430013021,
1307,1307,5302,2021-10-08 17:14:09.073,-0.3672472635904948,
1308,1308,5306,2021-10-08 17:14:09.077,-0.1078732808430989,
1309,1309,5310,2021-10-08 17:14:09.081,-0.4486751556396485,
1310,1310,5314,2021-10-08 17:14:09.085,-0.2212746938069661,
1311,1311,5318,2021-10-08 17:14:09.089,-0.0960699717203776,
1312,1312,5322,2021-10-08 17:14:09.093,-0.2598222096761068,
1313,1313,5326,2021-10-08 17:14:09.097,-0.0336170196533203,
1314,1314,5330,2021-10-08 17:14:09.101,-0.3769588470458985,
1315,1315,5334,2021-10-08 17:14:09.105,-0.2634080251057943,
1316,1316,5338,2021-10-08 17:14:09.109,-0.279394785563151,
1317,1317,5342,2021-10-08 17:14:09.113,-0.294186274210612,
1318,1318,5346,2021-10-08 17:14:09.117,0.0797843933105468,
1319,1319,5350,2021-10-08 17:14:09.121,-0.2480189005533854,
1320,1320,5354,2021-10-08 17:14:09.125,-0.1607640584309896,
1321,1321,5358,2021-10-08 17:14:09.129,-0.2096207936604818,
1322,1322,5362,2021-10-08 17:14:09.133,-0.4104264577229818,
1323,1323,5366,2021-10-08 17:14:09.137,-0.1609134674072266,
1324,1324,5370,2021-10-08 17:14:09.141,-0.3292973836263021,
1325,1325,5374,2021-10-08 17:14:09.145,-0.0761985778808593,
1326,1326,5378,2021-10-08 17:14:09.149,-0.0850137074788411,
1327,1327,5382,2021-10-08 17:14:09.153,-0.3137588500976563,
1328,1328,5386,2021-10-08 17:14:09.157,-0.0883007049560547,
1329,1329,5390,2021-10-08 17:14:09.161,-0.4561456044514974,
1330,1330,5394,2021-10-08 17:14:09.165,-0.3006108601888021,
1331,1331,5398,2021-10-08 17:14:09.169,-0.1488113403320312,
1332,1332,5402,2021-10-08 17:14:09.173,-0.2504094441731771,
1333,1333,5406,2021-10-08 17:14:09.177,-0.0038846333821614,
1334,1334,5410,2021-10-08 17:14:09.181,-0.358432133992513,
1335,1335,5414,2021-10-08 17:14:09.185,-0.2342732747395833,
1336,1336,5418,2021-10-08 17:14:09.189,-0.2693843841552735,
1337,1337,5422,2021-10-08 17:14:09.193,-0.4023583730061849,
1338,1338,5426,2021-10-08 17:14:09.197,0.0310770670572916,
1339,1339,5430,2021-10-08 17:14:09.201,-0.2269522349039713,
1340,1340,5434,2021-10-08 17:14:09.205,-0.1317787170410156,
1341,1341,5438,2021-10-08 17:14:09.209,-0.2063337961832682,
1342,1342,5442,2021-10-08 17:14:09.213,-0.4244709014892578,
1343,1343,5446,2021-10-08 17:14:09.217,-0.186163584391276,
1344,1344,5450,2021-10-08 17:14:09.221,-0.358282725016276,
1345,1345,5454,2021-10-08 17:14:09.225,-0.2250099182128906,
1346,1346,5458,2021-10-08 17:14:09.229,0.0609588623046875,
1347,1347,5462,2021-10-08 17:14:09.233,-0.1491101582845052,
1348,1348,5466,2021-10-08 17:14:09.237,0.193783442179362,
1349,1349,5470,2021-10-08 17:14:09.241,0.064544677734375,
1350,1350,5474,2021-10-08 17:14:09.245,-0.007171630859375,
1351,1351,5478,2021-10-08 17:14:09.249,0.1931858062744141,
1352,1352,5482,2021-10-08 17:14:09.253,-0.4040018717447917,
1353,1353,5486,2021-10-08 17:14:09.257,-0.7191054026285808,
1354,1354,5490,2021-10-08 17:14:09.261,-1.0377947489420574,
1355,1355,5494,2021-10-08 17:14:09.265,-1.2236595153808596,
1356,1356,5498,2021-10-08 17:14:09.269,-0.7195536295572917,
1357,1357,5502,2021-10-08 17:14:09.273,-0.6790637969970704,
1358,1358,5506,2021-10-08 17:14:09.277,-0.0630505879720052,
1359,1359,5510,2021-10-08 17:14:09.281,0.3025531768798828,
1360,1360,5514,2021-10-08 17:14:09.285,0.2015527089436849,
1361,1361,5518,2021-10-08 17:14:09.289,0.3611214955647787,
1362,1362,5522,2021-10-08 17:14:09.293,-0.0827725728352864,
1363,1363,5526,2021-10-08 17:14:09.297,-0.0406392415364583,
1364,1364,5530,2021-10-08 17:14:09.301,-0.1483631134033203,
1365,1365,5534,2021-10-08 17:14:09.305,-0.2632586161295573,
1366,1366,5538,2021-10-08 17:14:09.309,0.1101144154866536,
1367,1367,5542,2021-10-08 17:14:09.313,-0.2138042449951172,
1368,1368,5546,2021-10-08 17:14:09.317,-0.143133799235026,
1369,1369,5550,2021-10-08 17:14:09.321,-0.2185853322347005,
1370,1370,5554,2021-10-08 17:14:09.325,-0.4539044698079427,
1371,1371,5558,2021-10-08 17:14:09.329,-0.201104482014974,
1372,1372,5562,2021-10-08 17:14:09.333,-0.3535016377766927,
1373,1373,5566,2021-10-08 17:14:09.337,-0.1252047220865885,
1374,1374,5570,2021-10-08 17:14:09.341,-0.1464207967122396,
1375,1375,5574,2021-10-08 17:14:09.345,-0.3563404083251953,
1376,1376,5578,2021-10-08 17:14:09.349,-0.1089191436767578,
1377,1377,5582,2021-10-08 17:14:09.353,-0.4474798838297527,
1378,1378,5586,2021-10-08 17:14:09.357,-0.3143564860026042,
1379,1379,5590,2021-10-08 17:14:09.361,-0.164947509765625,
1380,1380,5594,2021-10-08 17:14:09.365,-0.2415943145751953,
1381,1381,5598,2021-10-08 17:14:09.369,0.0146420796712239,
1382,1382,5602,2021-10-08 17:14:09.373,-0.3416983286539714,
1383,1383,5606,2021-10-08 17:14:09.377,-0.2232170104980469,
1384,1384,5610,2021-10-08 17:14:09.381,-0.2765560150146485,
1385,1385,5614,2021-10-08 17:14:09.385,-0.4211839040120443,
1386,1386,5618,2021-10-08 17:14:09.389,0.0185267130533854,
1387,1387,5622,2021-10-08 17:14:09.393,-0.2392037709554036,
1388,1388,5626,2021-10-08 17:14:09.397,-0.1399962107340495,
1389,1389,5630,2021-10-08 17:14:09.401,-0.1982657114664713,
1390,1390,5634,2021-10-08 17:14:09.405,-0.3890609741210938,
1391,1391,5638,2021-10-08 17:14:09.409,-0.1398468017578125,
1392,1392,5642,2021-10-08 17:14:09.413,-0.4104264577229818,
1393,1393,5646,2021-10-08 17:14:09.417,-0.1065286000569661,
1394,1394,5650,2021-10-08 17:14:09.421,-0.0552813212076822,
1395,1395,5654,2021-10-08 17:14:09.425,-0.2677408854166667,
1396,1396,5658,2021-10-08 17:14:09.429,-0.0469144185384114,
1397,1397,5662,2021-10-08 17:14:09.433,-0.3787517547607422,
1398,1398,5666,2021-10-08 17:14:09.437,-0.2897040049235026,
1399,1399,5670,2021-10-08 17:14:09.441,-0.2324803670247396,
1400,1400,5674,2021-10-08 17:14:09.445,-0.2699820200602214,
1401,1401,5678,2021-10-08 17:14:09.449,0.0343640645345052,
1402,1402,5682,2021-10-08 17:14:09.453,-0.3176434834798177,
1403,1403,5686,2021-10-08 17:14:09.457,-0.2188841501871745,
1404,1404,5690,2021-10-08 17:14:09.461,-0.2466742197672526,
1405,1405,5694,2021-10-08 17:14:09.465,-0.4701900482177735,
1406,1406,5698,2021-10-08 17:14:09.469,-0.1199754079182942,
1407,1407,5702,2021-10-08 17:14:09.473,-0.2855205535888672,
1408,1408,5706,2021-10-08 17:14:09.477,-0.1163895924886067,
1409,1409,5710,2021-10-08 17:14:09.481,-0.1662921905517578,
1410,1410,5714,2021-10-08 17:14:09.485,-0.3914515177408855,
1411,1411,5718,2021-10-08 17:14:09.489,-0.1480642954508463,
1412,1412,5722,2021-10-08 17:14:09.493,-0.494991938273112,
1413,1413,5726,2021-10-08 17:14:09.497,-0.2266534169514974,
1414,1414,5730,2021-10-08 17:14:09.501,-0.1053333282470703,
1415,1415,5734,2021-10-08 17:14:09.505,-0.2828311920166016,
1416,1416,5738,2021-10-08 17:14:09.509,-0.0626023610432942,
1417,1417,5742,2021-10-08 17:14:09.513,-0.3986231486002605,
1418,1418,5746,2021-10-08 17:14:09.517,-0.2533976236979167,
1419,1419,5750,2021-10-08 17:14:09.521,-0.2808888753255208,
1420,1420,5754,2021-10-08 17:14:09.525,-0.3252633412679037,
1421,1421,5758,2021-10-08 17:14:09.529,0.085461934407552,
1422,1422,5762,2021-10-08 17:14:09.533,-0.214999516805013,
1423,1423,5766,2021-10-08 17:14:09.537,-0.1337210337320963,
1424,1424,5770,2021-10-08 17:14:09.541,-0.1755555470784505,
1425,1425,5774,2021-10-08 17:14:09.545,-0.3762118021647135,
1426,1426,5778,2021-10-08 17:14:09.549,-0.1225153605143229,
1427,1427,5782,2021-10-08 17:14:09.553,-0.2882099151611328,
1428,1428,5786,2021-10-08 17:14:09.557,-0.0691763559977213,
1429,1429,5790,2021-10-08 17:14:09.561,-0.0869560241699218,
1430,1430,5794,2021-10-08 17:14:09.565,-0.3035990397135417,
1431,1431,5798,2021-10-08 17:14:09.569,-0.056775410970052,
1432,1432,5802,2021-10-08 17:14:09.573,-0.3936926523844402,
1433,1433,5806,2021-10-08 17:14:09.577,-0.265051523844401,
1434,1434,5810,2021-10-08 17:14:09.581,-0.1352151234944661,
1435,1435,5814,2021-10-08 17:14:09.585,-0.2402496337890625,
1436,1436,5818,2021-10-08 17:14:09.589,0.0086657206217447,
1437,1437,5822,2021-10-08 17:14:09.593,-0.3452841440836589,
1438,1438,5826,2021-10-08 17:14:09.597,-0.2215735117594401,
1439,1439,5830,2021-10-08 17:14:09.601,-0.2774524688720703,
1440,1440,5834,2021-10-08 17:14:09.605,-0.4104264577229818,
1441,1441,5838,2021-10-08 17:14:09.609,0.021365483601888,
1442,1442,5842,2021-10-08 17:14:09.613,-0.2429389953613281,
1443,1443,5846,2021-10-08 17:14:09.617,-0.1461219787597656,
1444,1444,5850,2021-10-08 17:14:09.621,-0.2075290679931641,
1445,1445,5854,2021-10-08 17:14:09.625,-0.4004160563151042,
1446,1446,5858,2021-10-08 17:14:09.629,-0.1688321431477864,
1447,1447,5862,2021-10-08 17:14:09.633,-0.4240226745605469,
1448,1448,5866,2021-10-08 17:14:09.637,-0.1231129964192708,
1449,1449,5870,2021-10-08 17:14:09.641,-0.0751527150472005,
1450,1450,5874,2021-10-08 17:14:09.645,-0.2850723266601563,
1451,1451,5878,2021-10-08 17:14:09.649,-0.0661881764729817,
1452,1452,5882,2021-10-08 17:14:09.653,-0.4062430063883464,
1453,1453,5886,2021-10-08 17:14:09.657,-0.3204822540283203,
1454,1454,5890,2021-10-08 17:14:09.661,-0.2333768208821615,
1455,1455,5894,2021-10-08 17:14:09.665,-0.272372563680013,
1456,1456,5898,2021-10-08 17:14:09.669,0.0292841593424479,
1457,1457,5902,2021-10-08 17:14:09.673,-0.3107706705729167,
1458,1458,5906,2021-10-08 17:14:09.677,-0.1987139383951823,
1459,1459,5910,2021-10-08 17:14:09.681,-0.2127583821614583,
1460,1460,5914,2021-10-08 17:14:09.685,-0.4317919413248698,
1461,1461,5918,2021-10-08 17:14:09.689,-0.0770950317382812,
1462,1462,5922,2021-10-08 17:14:09.693,-0.251455307006836,
1463,1463,5926,2021-10-08 17:14:09.697,-0.0944264729817708,
1464,1464,5930,2021-10-08 17:14:09.701,-0.1382033030192057,
1465,1465,5934,2021-10-08 17:14:09.705,-0.3475252787272135,
1466,1466,5938,2021-10-08 17:14:09.709,-0.106976826985677,
1467,1467,5942,2021-10-08 17:14:09.713,-0.4579385121663412,
1468,1468,5946,2021-10-08 17:14:09.717,-0.172119140625,
1469,1469,5950,2021-10-08 17:14:09.721,0.1090685526529948,
1470,1470,5954,2021-10-08 17:14:09.725,-0.2849229176839193,
1471,1471,5958,2021-10-08 17:14:09.729,-0.1535924275716146,
1472,1472,5962,2021-10-08 17:14:09.733,-0.3886127471923828,
1473,1473,5966,2021-10-08 17:14:09.737,-0.3869692484537761,
1474,1474,5970,2021-10-08 17:14:09.741,-0.2238146464029948,
1475,1475,5974,2021-10-08 17:14:09.745,-0.3772576649983724,
1476,1476,5978,2021-10-08 17:14:09.749,0.0170326232910156,
1477,1477,5982,2021-10-08 17:14:09.753,-0.1571782430013021,
1478,1478,5986,2021-10-08 17:14:09.757,-0.2490647633870443,
1479,1479,5990,2021-10-08 17:14:09.761,-0.1211706797281901,
1480,1480,5994,2021-10-08 17:14:09.765,-0.4497210184733073,
1481,1481,5998,2021-10-08 17:14:09.769,-0.222171147664388,
1482,1482,6002,2021-10-08 17:14:09.773,-0.258477528889974,
1483,1483,6006,2021-10-08 17:14:09.777,-0.1803366343180338,
1484,1484,6010,2021-10-08 17:14:09.781,-0.0131479899088541,
1485,1485,6014,2021-10-08 17:14:09.785,-0.3408018747965495,
1486,1486,6018,2021-10-08 17:14:09.789,-0.1156425476074218,
1487,1487,6022,2021-10-08 17:14:09.793,-0.3481229146321615,
1488,1488,6026,2021-10-08 17:14:09.797,-0.3508122762044271,
1489,1489,6030,2021-10-08 17:14:09.801,-0.0228595733642578,
1490,1490,6034,2021-10-08 17:14:09.805,-0.243984858194987,
1491,1491,6038,2021-10-08 17:14:09.809,-0.0406392415364583,
1492,1492,6042,2021-10-08 17:14:09.813,-0.2923933664957682,
1493,1493,6046,2021-10-08 17:14:09.817,-0.3261597951253255,
1494,1494,6050,2021-10-08 17:14:09.821,-0.193932851155599,
1495,1495,6054,2021-10-08 17:14:09.825,-0.4323895772298177,
1496,1496,6058,2021-10-08 17:14:09.829,-0.0122515360514322,
1497,1497,6062,2021-10-08 17:14:09.833,-0.1627063751220703,
1498,1498,6066,2021-10-08 17:14:09.837,-0.2345720926920573,
1499,1499,6070,2021-10-08 17:14:09.841,-0.1157919565836588,
1500,1500,6074,2021-10-08 17:14:09.845,-0.4150581359863282,
1501,1501,6078,2021-10-08 17:14:09.849,-0.1897493998209635,
1502,1502,6082,2021-10-08 17:14:09.853,-0.3294467926025391,
1503,1503,6086,2021-10-08 17:14:09.857,-0.1919905344645182,
1504,1504,6090,2021-10-08 17:14:09.861,0.1370080312093099,
1505,1505,6094,2021-10-08 17:14:09.865,-0.2907498677571615,
1506,1506,6098,2021-10-08 17:14:09.869,-0.2628103892008464,
1507,1507,6102,2021-10-08 17:14:09.873,-0.2998638153076172,
1508,1508,6106,2021-10-08 17:14:09.877,-0.5075422922770183,
1509,1509,6110,2021-10-08 17:14:09.881,-0.1228141784667968,
1510,1510,6114,2021-10-08 17:14:09.885,-0.2710278828938802,
1511,1511,6118,2021-10-08 17:14:09.889,-0.1007016499837239,
1512,1512,6122,2021-10-08 17:14:09.893,-0.1349163055419922,
1513,1513,6126,2021-10-08 17:14:09.897,-0.3425947825113932,
1514,1514,6130,2021-10-08 17:14:09.901,-0.0815773010253906,
1515,1515,6134,2021-10-08 17:14:09.905,-0.437320073445638,
1516,1516,6138,2021-10-08 17:14:09.909,-0.1924387613932291,
1517,1517,6142,2021-10-08 17:14:09.913,-0.0838184356689453,
1518,1518,6146,2021-10-08 17:14:09.917,-0.286566416422526,
1519,1519,6150,2021-10-08 17:14:09.921,-0.0747044881184895,
1520,1520,6154,2021-10-08 17:14:09.925,-0.394589106241862,
1521,1521,6158,2021-10-08 17:14:09.929,-0.2091725667317708,
1522,1522,6162,2021-10-08 17:14:09.933,-0.1356633504231771,
1523,1523,6166,2021-10-08 17:14:09.937,-0.0545342763264974,
1524,1524,6170,2021-10-08 17:14:09.941,0.4120699564615886,
1525,1525,6174,2021-10-08 17:14:09.945,0.1232624053955078,
1526,1526,6178,2021-10-08 17:14:09.949,0.1438808441162109,
1527,1527,6182,2021-10-08 17:14:09.953,-0.1265494028727213,
1528,1528,6186,2021-10-08 17:14:09.957,-0.7040150960286459,
1529,1529,6190,2021-10-08 17:14:09.961,-0.8404254913330079,
1530,1530,6194,2021-10-08 17:14:09.965,-1.1997540791829429,
1531,1531,6198,2021-10-08 17:14:09.969,-0.8865928649902345,
1532,1532,6202,2021-10-08 17:14:09.973,-0.5979347229003907,
1533,1533,6206,2021-10-08 17:14:09.977,-0.4613749186197917,
1534,1534,6210,2021-10-08 17:14:09.981,0.1532936096191406,
1535,1535,6214,2021-10-08 17:14:09.985,0.0756009419759114,
1536,1536,6218,2021-10-08 17:14:09.989,0.0552813212076822,
1537,1537,6222,2021-10-08 17:14:09.993,0.4078865051269532,
1538,1538,6226,2021-10-08 17:14:09.997,-0.0014940897623697,
1539,1539,6230,2021-10-08 17:14:10.001,-0.0421333312988281,
1540,1540,6234,2021-10-08 17:14:10.005,-0.165096918741862,
1541,1541,6238,2021-10-08 17:14:10.009,-0.387716293334961,
1542,1542,6242,2021-10-08 17:14:10.013,-0.1371574401855469,
1543,1543,6246,2021-10-08 17:14:10.017,-0.4202874501546224,
1544,1544,6250,2021-10-08 17:14:10.021,-0.1178836822509765,
1545,1545,6254,2021-10-08 17:14:10.025,-0.0548330942789713,
1546,1546,6258,2021-10-08 17:14:10.029,-0.2789465586344401,
1547,1547,6262,2021-10-08 17:14:10.033,-0.0630505879720052,
1548,1548,6266,2021-10-08 17:14:10.037,-0.4031054178873698,
1549,1549,6270,2021-10-08 17:14:10.041,-0.3124141693115235,
1550,1550,6274,2021-10-08 17:14:10.045,-0.2545928955078125,
1551,1551,6278,2021-10-08 17:14:10.049,-0.2834288279215495,
1552,1552,6282,2021-10-08 17:14:10.053,0.0339158376057942,
1553,1553,6286,2021-10-08 17:14:10.057,-0.3101730346679688,
1554,1554,6290,2021-10-08 17:14:10.061,-0.208126703898112,
1555,1555,6294,2021-10-08 17:14:10.065,-0.222619374593099,
1556,1556,6298,2021-10-08 17:14:10.069,-0.4482269287109375,
1557,1557,6302,2021-10-08 17:14:10.073,-0.0658893585205078,
1558,1558,6306,2021-10-08 17:14:10.077,-0.1583735148111979,
1559,1559,6310,2021-10-08 17:14:10.081,-0.201104482014974,
1560,1560,6314,2021-10-08 17:14:10.085,-0.0950241088867187,
1561,1561,6318,2021-10-08 17:14:10.089,-0.430148442586263,
1562,1562,6322,2021-10-08 17:14:10.093,-0.1876576741536458,
1563,1563,6326,2021-10-08 17:14:10.097,-0.4099782307942708,
1564,1564,6330,2021-10-08 17:14:10.101,-0.294036865234375,
1565,1565,6334,2021-10-08 17:14:10.105,0.0230089823404947,
1566,1566,6338,2021-10-08 17:14:10.109,-0.2640056610107422,
1567,1567,6342,2021-10-08 17:14:10.113,-0.0675328572591145,
1568,1568,6346,2021-10-08 17:14:10.117,-0.3148047129313151,
1569,1569,6350,2021-10-08 17:14:10.121,-0.3530534108479818,
1570,1570,6354,2021-10-08 17:14:10.125,-0.207678476969401,
1571,1571,6358,2021-10-08 17:14:10.129,-0.3821881612141927,
1572,1572,6362,2021-10-08 17:14:10.133,0.0098609924316406,
1573,1573,6366,2021-10-08 17:14:10.137,-0.1749579111735026,
1574,1574,6370,2021-10-08 17:14:10.141,-0.236962636311849,
1575,1575,6374,2021-10-08 17:14:10.145,-0.093231201171875,
1576,1576,6378,2021-10-08 17:14:10.149,-0.4279073079427083,
1577,1577,6382,2021-10-08 17:14:10.153,-0.2048397064208984,
1578,1578,6386,2021-10-08 17:14:10.157,-0.2647527058919271,
1579,1579,6390,2021-10-08 17:14:10.161,-0.1836236317952474,
1580,1580,6394,2021-10-08 17:14:10.165,-0.0162855784098307,
1581,1581,6398,2021-10-08 17:14:10.169,-0.3702354431152344,
1582,1582,6402,2021-10-08 17:14:10.173,-0.1455243428548177,
1583,1583,6406,2021-10-08 17:14:10.177,-0.35858154296875,
1584,1584,6410,2021-10-08 17:14:10.181,-0.4054959615071615,
1585,1585,6414,2021-10-08 17:14:10.185,-0.0996557871500651,
1586,1586,6418,2021-10-08 17:14:10.189,-0.3046449025472005,
1587,1587,6422,2021-10-08 17:14:10.193,-0.0652917226155599,
1588,1588,6426,2021-10-08 17:14:10.197,-0.3068860371907552,
1589,1589,6430,2021-10-08 17:14:10.201,-0.3521569569905599,
1590,1590,6434,2021-10-08 17:14:10.205,-0.214999516805013,
1591,1591,6438,2021-10-08 17:14:10.209,-0.4854297637939453,
1592,1592,6442,2021-10-08 17:14:10.213,-0.0630505879720052,
1593,1593,6446,2021-10-08 17:14:10.217,-0.1898988087972005,
1594,1594,6450,2021-10-08 17:14:10.221,-0.2302392323811849,
1595,1595,6454,2021-10-08 17:14:10.225,-0.0850137074788411,
1596,1596,6458,2021-10-08 17:14:10.229,-0.3923479715983073,
1597,1597,6462,2021-10-08 17:14:10.233,-0.1786931355794271,
1598,1598,6466,2021-10-08 17:14:10.237,-0.336767832438151,
1599,1599,6470,2021-10-08 17:14:10.241,-0.1816813151041666,
1600,1600,6474,2021-10-08 17:14:10.245,0.0636482238769531,
1601,1601,6478,2021-10-08 17:14:10.249,-0.2692349751790365,
1602,1602,6482,2021-10-08 17:14:10.253,-0.0634988149007161,
1603,1603,6486,2021-10-08 17:14:10.257,-0.2765560150146485,
1604,1604,6490,2021-10-08 17:14:10.261,-0.351559321085612,
1605,1605,6494,2021-10-08 17:14:10.265,-0.1211706797281901,
1606,1606,6498,2021-10-08 17:14:10.269,-0.279394785563151,
1607,1607,6502,2021-10-08 17:14:10.273,0.0122515360514322,
1608,1608,6506,2021-10-08 17:14:10.277,-0.2170912424723307,
1609,1609,6510,2021-10-08 17:14:10.281,-0.2705796559651693,
1610,1610,6514,2021-10-08 17:14:10.285,-0.0954723358154297,
1611,1611,6518,2021-10-08 17:14:10.289,-0.4422505696614583,
1612,1612,6522,2021-10-08 17:14:10.293,-0.1163895924886067,
1613,1613,6526,2021-10-08 17:14:10.297,-0.1773484547932942,
1614,1614,6530,2021-10-08 17:14:10.301,-0.1816813151041666,
1615,1615,6534,2021-10-08 17:14:10.305,-0.0524425506591796,
1616,1616,6538,2021-10-08 17:14:10.309,-0.4002666473388672,
1617,1617,6542,2021-10-08 17:14:10.313,-0.1713720957438151,
1618,1618,6546,2021-10-08 17:14:10.317,-0.4041512807210287,
1619,1619,6550,2021-10-08 17:14:10.321,-0.2964274088541667,
1620,1620,6554,2021-10-08 17:14:10.325,0.0119527180989583,
1621,1621,6558,2021-10-08 17:14:10.329,-0.2882099151611328,
1622,1622,6562,2021-10-08 17:14:10.333,-0.0953229268391927,
1623,1623,6566,2021-10-08 17:14:10.337,-0.3292973836263021,
1624,1624,6570,2021-10-08 17:14:10.341,-0.3648567199707032,
1625,1625,6574,2021-10-08 17:14:10.345,-0.2121607462565104,
1626,1626,6578,2021-10-08 17:14:10.349,-0.372625986735026,
1627,1627,6582,2021-10-08 17:14:10.353,0.0061257680257161,
1628,1628,6586,2021-10-08 17:14:10.357,-0.1897493998209635,
1629,1629,6590,2021-10-08 17:14:10.361,-0.258626937866211,
1630,1630,6594,2021-10-08 17:14:10.365,-0.1235612233479817,
1631,1631,6598,2021-10-08 17:14:10.369,-0.459133783976237,
1632,1632,6602,2021-10-08 17:14:10.373,-0.2300898234049479,
1633,1633,6606,2021-10-08 17:14:10.377,-0.2777512868245443,
1634,1634,6610,2021-10-08 17:14:10.381,-0.1900482177734375,
1635,1635,6614,2021-10-08 17:14:10.385,-0.0089645385742187,
1636,1636,6618,2021-10-08 17:14:10.389,-0.3472264607747396,
1637,1637,6622,2021-10-08 17:14:10.393,-0.1163895924886067,
1638,1638,6626,2021-10-08 17:14:10.397,-0.3285503387451172,
1639,1639,6630,2021-10-08 17:14:10.401,-0.3617191314697266,
1640,1640,6634,2021-10-08 17:14:10.405,-0.050052007039388,
1641,1641,6638,2021-10-08 17:14:10.409,-0.2675914764404297,
1642,1642,6642,2021-10-08 17:14:10.413,-0.0345134735107421,
1643,1643,6646,2021-10-08 17:14:10.417,-0.2711772918701172,
1644,1644,6650,2021-10-08 17:14:10.421,-0.3094259897867839,
1645,1645,6654,2021-10-08 17:14:10.425,-0.1724179585774739,
1646,1646,6658,2021-10-08 17:14:10.429,-0.4335848490397136,
1647,1647,6662,2021-10-08 17:14:10.433,-0.0228595733642578,
1648,1648,6666,2021-10-08 17:14:10.437,-0.1709238688151041,
1649,1649,6670,2021-10-08 17:14:10.441,-0.2302392323811849,
1650,1650,6674,2021-10-08 17:14:10.445,-0.0835196177164713,
1651,1651,6678,2021-10-08 17:14:10.449,-0.4137134552001953,
1652,1652,6682,2021-10-08 17:14:10.453,-0.21514892578125,
1653,1653,6686,2021-10-08 17:14:10.457,-0.3620179494222005,
1654,1654,6690,2021-10-08 17:14:10.461,-0.2072302500406901,
1655,1655,6694,2021-10-08 17:14:10.465,0.0404898325602213,
1656,1656,6698,2021-10-08 17:14:10.469,-0.3074836730957032,
1657,1657,6702,2021-10-08 17:14:10.473,-0.114895502726237,
1658,1658,6706,2021-10-08 17:14:10.477,-0.3342278798421224,
1659,1659,6710,2021-10-08 17:14:10.481,-0.394290288289388,
1660,1660,6714,2021-10-08 17:14:10.485,-0.1461219787597656,
1661,1661,6718,2021-10-08 17:14:10.489,-0.2995649973551432,
1662,1662,6722,2021-10-08 17:14:10.493,-0.0058269500732421,
1663,1663,6726,2021-10-08 17:14:10.497,-0.2305380503336588,
1664,1664,6730,2021-10-08 17:14:10.501,-0.2753607432047526,
1665,1665,6734,2021-10-08 17:14:10.505,-0.1181825002034505,
1666,1666,6738,2021-10-08 17:14:10.509,-0.4610761006673177,
1667,1667,6742,2021-10-08 17:14:10.513,-0.1154931386311849,
1668,1668,6746,2021-10-08 17:14:10.517,-0.1837730407714844,
1669,1669,6750,2021-10-08 17:14:10.521,-0.193783442179362,
1670,1670,6754,2021-10-08 17:14:10.525,-0.064395268758138,
1671,1671,6758,2021-10-08 17:14:10.529,-0.4043006896972657,
1672,1672,6762,2021-10-08 17:14:10.533,-0.1821295420328776,
1673,1673,6766,2021-10-08 17:14:10.537,-0.4023583730061849,
1674,1674,6770,2021-10-08 17:14:10.541,-0.2702808380126953,
1675,1675,6774,2021-10-08 17:14:10.545,0.0369040171305338,
1676,1676,6778,2021-10-08 17:14:10.549,-0.2698326110839844,
1677,1677,6782,2021-10-08 17:14:10.553,-0.0730609893798828,
1678,1678,6786,2021-10-08 17:14:10.557,-0.2965768178304037,
1679,1679,6790,2021-10-08 17:14:10.561,-0.329745610555013,
1680,1680,6794,2021-10-08 17:14:10.565,-0.1760037740071614,
1681,1681,6798,2021-10-08 17:14:10.569,-0.3384113311767578,
1682,1682,6802,2021-10-08 17:14:10.573,0.0146420796712239,
1683,1683,6806,2021-10-08 17:14:10.577,-0.1912434895833333,
1684,1684,6810,2021-10-08 17:14:10.581,-0.2711772918701172,
1685,1685,6814,2021-10-08 17:14:10.585,-0.1367092132568359,
1686,1686,6818,2021-10-08 17:14:10.589,-0.4682477315266927,
1687,1687,6822,2021-10-08 17:14:10.593,-0.2360661824544271,
1688,1688,6826,2021-10-08 17:14:10.597,-0.2764066060384115,
1689,1689,6830,2021-10-08 17:14:10.601,-0.2024491628011068,
1690,1690,6834,2021-10-08 17:14:10.605,-0.0318241119384765,
1691,1691,6838,2021-10-08 17:14:10.609,-0.3648567199707032,
1692,1692,6842,2021-10-08 17:14:10.613,-0.1308822631835937,
1693,1693,6846,2021-10-08 17:14:10.617,-0.3448359171549479,
1694,1694,6850,2021-10-08 17:14:10.621,-0.3715801239013672,
1695,1695,6854,2021-10-08 17:14:10.625,-0.0469144185384114,
1696,1696,6858,2021-10-08 17:14:10.629,-0.2619139353434245,
1697,1697,6862,2021-10-08 17:14:10.633,-0.035409927368164,
1698,1698,6866,2021-10-08 17:14:10.637,-0.272223154703776,
1699,1699,6870,2021-10-08 17:14:10.641,-0.3209304809570313,
1700,1700,6874,2021-10-08 17:14:10.645,-0.214999516805013,
1701,1701,6878,2021-10-08 17:14:10.649,-0.4902108510335287,
1702,1702,6882,2021-10-08 17:14:10.653,-0.0506496429443359,
1703,1703,6886,2021-10-08 17:14:10.657,-0.1108614603678385,
1704,1704,6890,2021-10-08 17:14:10.661,-0.0603612263997395,
1705,1705,6894,2021-10-08 17:14:10.665,0.186312993367513,
1706,1706,6898,2021-10-08 17:14:10.669,-0.0345134735107421,
1707,1707,6902,2021-10-08 17:14:10.673,0.2014032999674479,
1708,1708,6906,2021-10-08 17:14:10.677,-0.014044443766276,
1709,1709,6910,2021-10-08 17:14:10.681,-0.1311810811360677,
1710,1710,6914,2021-10-08 17:14:10.685,-0.322723388671875,
1711,1711,6918,2021-10-08 17:14:10.689,-1.0089588165283203,
1712,1712,6922,2021-10-08 17:14:10.693,-0.9784793853759768,
1713,1713,6926,2021-10-08 17:14:10.697,-1.076939900716146,
1714,1714,6930,2021-10-08 17:14:10.701,-0.8643309275309246,
1715,1715,6934,2021-10-08 17:14:10.705,-0.2776018778483073,
1716,1716,6938,2021-10-08 17:14:10.709,-0.0978628794352213,
1717,1717,6942,2021-10-08 17:14:10.713,0.3702354431152344,
1718,1718,6946,2021-10-08 17:14:10.717,0.18646240234375,
1719,1719,6950,2021-10-08 17:14:10.721,0.071566899617513,
1720,1720,6954,2021-10-08 17:14:10.725,0.1304340362548828,
1721,1721,6958,2021-10-08 17:14:10.729,-0.286865234375,
1722,1722,6962,2021-10-08 17:14:10.733,0.0113550821940104,
1723,1723,6966,2021-10-08 17:14:10.737,-0.1099650065104166,
1724,1724,6970,2021-10-08 17:14:10.741,-0.1529947916666666,
1725,1725,6974,2021-10-08 17:14:10.745,-0.0470638275146484,
1726,1726,6978,2021-10-08 17:14:10.749,-0.3969796498616537,
1727,1727,6982,2021-10-08 17:14:10.753,-0.1816813151041666,
1728,1728,6986,2021-10-08 17:14:10.757,-0.4026571909586589,
1729,1729,6990,2021-10-08 17:14:10.761,-0.2761077880859375,
1730,1730,6994,2021-10-08 17:14:10.765,-0.0010458628336588,
1731,1731,6998,2021-10-08 17:14:10.769,-0.3200340270996094,
1732,1732,7002,2021-10-08 17:14:10.773,-0.1223659515380859,
1733,1733,7006,2021-10-08 17:14:10.777,-0.3406524658203125,
1734,1734,7010,2021-10-08 17:14:10.781,-0.3833834330240886,
1735,1735,7014,2021-10-08 17:14:10.785,-0.2208264668782552,
1736,1736,7018,2021-10-08 17:14:10.789,-0.3745683034261068,
1737,1737,7022,2021-10-08 17:14:10.793,-0.0219631195068359,
1738,1738,7026,2021-10-08 17:14:10.797,-0.2066326141357422,
1739,1739,7030,2021-10-08 17:14:10.801,-0.2789465586344401,
1740,1740,7034,2021-10-08 17:14:10.805,-0.1222165425618489,
1741,1741,7038,2021-10-08 17:14:10.809,-0.4504680633544922,
1742,1742,7042,2021-10-08 17:14:10.813,-0.1921399434407552,
1743,1743,7046,2021-10-08 17:14:10.817,-0.2308368682861328,
1744,1744,7050,2021-10-08 17:14:10.821,-0.1860141754150391,
1745,1745,7054,2021-10-08 17:14:10.825,-0.0230089823404947,
1746,1746,7058,2021-10-08 17:14:10.829,-0.3543980916341146,
1747,1747,7062,2021-10-08 17:14:10.833,-0.1246070861816406,
1748,1748,7066,2021-10-08 17:14:10.837,-0.3538004557291667,
1749,1749,7070,2021-10-08 17:14:10.841,-0.3408018747965495,
1750,1750,7074,2021-10-08 17:14:10.845,-0.0055281321207682,
1751,1751,7078,2021-10-08 17:14:10.849,-0.2477200826009115,
1752,1752,7082,2021-10-08 17:14:10.853,-0.0403404235839843,
1753,1753,7086,2021-10-08 17:14:10.857,-0.2758089701334635,
1754,1754,7090,2021-10-08 17:14:10.861,-0.3021049499511719,
1755,1755,7094,2021-10-08 17:14:10.865,-0.0415356953938802,
1756,1756,7098,2021-10-08 17:14:10.869,-0.3629144032796224,
1757,1757,7102,2021-10-08 17:14:10.873,-0.1492595672607422,
1758,1758,7106,2021-10-08 17:14:10.877,-0.1370080312093099,
1759,1759,7110,2021-10-08 17:14:10.881,-0.3466288248697917,
1760,1760,7114,2021-10-08 17:14:10.885,-0.1038392384847005,
1761,1761,7118,2021-10-08 17:14:10.889,-0.4168510437011719,
1762,1762,7122,2021-10-08 17:14:10.893,-0.3176434834798177,
1763,1763,7126,2021-10-08 17:14:10.897,-0.2450307210286458,
1764,1764,7130,2021-10-08 17:14:10.901,-0.2967262268066407,
1765,1765,7134,2021-10-08 17:14:10.905,0.0022411346435546,
1766,1766,7138,2021-10-08 17:14:10.909,-0.3473758697509766,
1767,1767,7142,2021-10-08 17:14:10.913,-0.243686040242513,
1768,1768,7146,2021-10-08 17:14:10.917,-0.2559375762939453,
1769,1769,7150,2021-10-08 17:14:10.921,-0.473925272623698,
1770,1770,7154,2021-10-08 17:14:10.925,-0.0936794281005859,
1771,1771,7158,2021-10-08 17:14:10.929,-0.272970199584961,
1772,1772,7162,2021-10-08 17:14:10.933,-0.1255035400390625,
1773,1773,7166,2021-10-08 17:14:10.937,-0.1706250508626302,
1774,1774,7170,2021-10-08 17:14:10.941,-0.380245844523112,
1775,1775,7174,2021-10-08 17:14:10.945,-0.1131025950113932,
1776,1776,7178,2021-10-08 17:14:10.949,-0.4392623901367188,
1777,1777,7182,2021-10-08 17:14:10.953,-0.1752567291259766,
1778,1778,7186,2021-10-08 17:14:10.957,-0.0578212738037109,
1779,1779,7190,2021-10-08 17:14:10.961,-0.236813227335612,
1780,1780,7194,2021-10-08 17:14:10.965,-0.0080680847167968,
1781,1781,7198,2021-10-08 17:14:10.969,-0.358282725016276,
1782,1782,7202,2021-10-08 17:14:10.973,-0.2523517608642578,
1783,1783,7206,2021-10-08 17:14:10.977,-0.2690855662027995,
1784,1784,7210,2021-10-08 17:14:10.981,-0.2900028228759766,
1785,1785,7214,2021-10-08 17:14:10.985,0.085611343383789,
1786,1786,7218,2021-10-08 17:14:10.989,-0.2475706736246745,
1787,1787,7222,2021-10-08 17:14:10.993,-0.1628557840983073,
1788,1788,7226,2021-10-08 17:14:10.997,-0.1946798960367838,
1789,1789,7230,2021-10-08 17:14:11.001,-0.402208964029948,
1790,1790,7234,2021-10-08 17:14:11.005,-0.1311810811360677,
1791,1791,7238,2021-10-08 17:14:11.009,-0.2991167704264323,
1792,1792,7242,2021-10-08 17:14:11.013,-0.078589121500651,
1793,1793,7246,2021-10-08 17:14:11.017,0.0829219818115234,
1794,1794,7250,2021-10-08 17:14:11.021,-0.3408018747965495,
1795,1795,7254,2021-10-08 17:14:11.025,-0.1734638214111328,
1796,1796,7258,2021-10-08 17:14:11.029,-0.4202874501546224,
1797,1797,7262,2021-10-08 17:14:11.033,-0.3939914703369141,
1798,1798,7266,2021-10-08 17:14:11.037,-0.04302978515625,
1799,1799,7270,2021-10-08 17:14:11.041,-0.2822335561116537,
1800,1800,7274,2021-10-08 17:14:11.045,-0.0648434956868489,
1801,1801,7278,2021-10-08 17:14:11.049,-0.2994155883789063,
1802,1802,7282,2021-10-08 17:14:11.053,-0.3216775258382162,
1803,1803,7286,2021-10-08 17:14:11.057,-0.1235612233479817,
1804,1804,7290,2021-10-08 17:14:11.061,-0.4509162902832032,
1805,1805,7294,2021-10-08 17:14:11.065,-0.1128037770589192,
1806,1806,7298,2021-10-08 17:14:11.069,-0.1813824971516927,
1807,1807,7302,2021-10-08 17:14:11.073,-0.1928869883219401,
1808,1808,7306,2021-10-08 17:14:11.077,-0.0652917226155599,
1809,1809,7310,2021-10-08 17:14:11.081,-0.3929456075032552,
1810,1810,7314,2021-10-08 17:14:11.085,-0.1413408915201823,
1811,1811,7318,2021-10-08 17:14:11.089,-0.3666496276855469,
1812,1812,7322,2021-10-08 17:14:11.093,-0.2811876932779948,
1813,1813,7326,2021-10-08 17:14:11.097,0.0313758850097656,
1814,1814,7330,2021-10-08 17:14:11.101,-0.2701314290364583,
1815,1815,7334,2021-10-08 17:14:11.105,-0.0959205627441406,
1816,1816,7338,2021-10-08 17:14:11.109,-0.34423828125,
1817,1817,7342,2021-10-08 17:14:11.113,-0.394887924194336,
1818,1818,7346,2021-10-08 17:14:11.117,-0.2190335591634115,
1819,1819,7350,2021-10-08 17:14:11.121,-0.3575356801350912,
1820,1820,7354,2021-10-08 17:14:11.125,-0.0153891245524088,
1821,1821,7358,2021-10-08 17:14:11.129,-0.2227687835693359,
1822,1822,7362,2021-10-08 17:14:11.133,-0.272671381632487,
1823,1823,7366,2021-10-08 17:14:11.137,-0.1029427846272786,
1824,1824,7370,2021-10-08 17:14:11.141,-0.4111735026041667,
1825,1825,7374,2021-10-08 17:14:11.145,-0.1909446716308594,
1826,1826,7378,2021-10-08 17:14:11.149,-0.2613162994384766,
1827,1827,7382,2021-10-08 17:14:11.153,-0.1852671305338541,
1828,1828,7386,2021-10-08 17:14:11.157,-0.0121021270751953,
1829,1829,7390,2021-10-08 17:14:11.161,-0.3484217325846354,
1830,1830,7394,2021-10-08 17:14:11.165,-0.1162401835123698,
1831,1831,7398,2021-10-08 17:14:11.169,-0.351260503133138,
1832,1832,7402,2021-10-08 17:14:11.173,-0.329596201578776,
1833,1833,7406,2021-10-08 17:14:11.177,0.007022221883138,
1834,1834,7410,2021-10-08 17:14:11.181,-0.2577304840087891,
1835,1835,7414,2021-10-08 17:14:11.185,-0.0527413686116536,
1836,1836,7418,2021-10-08 17:14:11.189,-0.2985191345214844,
1837,1837,7422,2021-10-08 17:14:11.193,-0.3333314259847005,
1838,1838,7426,2021-10-08 17:14:11.197,-0.1804860432942708,
1839,1839,7430,2021-10-08 17:14:11.201,-0.4582373301188152,
1840,1840,7434,2021-10-08 17:14:11.205,-0.0403404235839843,
1841,1841,7438,2021-10-08 17:14:11.209,-0.1598676045735677,
1842,1842,7442,2021-10-08 17:14:11.213,-0.2097702026367187,
1843,1843,7446,2021-10-08 17:14:11.217,-0.0844160715738932,
1844,1844,7450,2021-10-08 17:14:11.221,-0.4187933603922527,
1845,1845,7454,2021-10-08 17:14:11.225,-0.222021738688151,
1846,1846,7458,2021-10-08 17:14:11.229,-0.3321361541748047,
1847,1847,7462,2021-10-08 17:14:11.233,-0.2054373423258463,
1848,1848,7466,2021-10-08 17:14:11.237,0.0112056732177734,
1849,1849,7470,2021-10-08 17:14:11.241,-0.3272056579589844,
1850,1850,7474,2021-10-08 17:14:11.245,-0.114596684773763,
1851,1851,7478,2021-10-08 17:14:11.249,-0.3188387552897135,
1852,1852,7482,2021-10-08 17:14:11.253,-0.3796482086181641,
1853,1853,7486,2021-10-08 17:14:11.257,-0.1422373453776041,
1854,1854,7490,2021-10-08 17:14:11.261,-0.3067366282145182,
1855,1855,7494,2021-10-08 17:14:11.265,-0.0233078002929687,
1856,1856,7498,2021-10-08 17:14:11.269,-0.2444330851236979,
1857,1857,7502,2021-10-08 17:14:11.273,-0.2807394663492839,
1858,1858,7506,2021-10-08 17:14:11.277,-0.1165390014648437,
1859,1859,7510,2021-10-08 17:14:11.281,-0.4326883951822917,
1860,1860,7514,2021-10-08 17:14:11.285,-0.0634988149007161,
1861,1861,7518,2021-10-08 17:14:11.289,-0.1595687866210937,
1862,1862,7522,2021-10-08 17:14:11.293,-0.1958751678466797,
1863,1863,7526,2021-10-08 17:14:11.297,-0.0732103983561198,
1864,1864,7530,2021-10-08 17:14:11.301,-0.4135640462239583,
1865,1865,7534,2021-10-08 17:14:11.305,-0.1662921905517578,
1866,1866,7538,2021-10-08 17:14:11.309,-0.3857739766438802,
1867,1867,7542,2021-10-08 17:14:11.313,-0.2734184265136719,
1868,1868,7546,2021-10-08 17:14:11.317,0.0249512990315755,
1869,1869,7550,2021-10-08 17:14:11.321,-0.2946345011393229,
1870,1870,7554,2021-10-08 17:14:11.325,-0.0956217447916666,
1871,1871,7558,2021-10-08 17:14:11.329,-0.3218269348144532,
1872,1872,7562,2021-10-08 17:14:11.333,-0.3753153483072917,
1873,1873,7566,2021-10-08 17:14:11.337,-0.1846694946289062,
1874,1874,7570,2021-10-08 17:14:11.341,-0.3219763437906901,
1875,1875,7574,2021-10-08 17:14:11.345,0.0121021270751953,
1876,1876,7578,2021-10-08 17:14:11.349,-0.2087243398030599,
1877,1877,7582,2021-10-08 17:14:11.353,-0.2699820200602214,
1878,1878,7586,2021-10-08 17:14:11.357,-0.1135508219401041,
1879,1879,7590,2021-10-08 17:14:11.361,-0.4418023427327474,
1880,1880,7594,2021-10-08 17:14:11.365,-0.2025985717773437,
1881,1881,7598,2021-10-08 17:14:11.369,-0.2523517608642578,
1882,1882,7602,2021-10-08 17:14:11.373,-0.1942316691080729,
1883,1883,7606,2021-10-08 17:14:11.377,-0.0581200917561849,
1884,1884,7610,2021-10-08 17:14:11.381,-0.4338836669921875,
1885,1885,7614,2021-10-08 17:14:11.385,-0.1945304870605469,
1886,1886,7618,2021-10-08 17:14:11.389,-0.3633626302083333,
1887,1887,7622,2021-10-08 17:14:11.393,-0.2197806040445963,
1888,1888,7626,2021-10-08 17:14:11.397,0.2199300130208333,
1889,1889,7630,2021-10-08 17:14:11.401,0.0506496429443359,
1890,1890,7634,2021-10-08 17:14:11.405,0.3110694885253907,
1891,1891,7638,2021-10-08 17:14:11.409,0.0700728098551432,
1892,1892,7642,2021-10-08 17:14:11.413,-0.0800832112630208,
1893,1893,7646,2021-10-08 17:14:11.417,-0.2218723297119141,
1894,1894,7650,2021-10-08 17:14:11.421,-0.8767318725585939,
1895,1895,7654,2021-10-08 17:14:11.425,-0.7881323496500652,
1896,1896,7658,2021-10-08 17:14:11.429,-0.983409881591797,
1897,1897,7662,2021-10-08 17:14:11.433,-0.8980973561604819,
1898,1898,7666,2021-10-08 17:14:11.437,-0.4775110880533855,
1899,1899,7670,2021-10-08 17:14:11.441,-0.4748217264811198,
1900,1900,7674,2021-10-08 17:14:11.445,0.0074704488118489,
1901,1901,7678,2021-10-08 17:14:11.449,0.0827725728352864,
1902,1902,7682,2021-10-08 17:14:11.453,0.2087243398030599,
1903,1903,7686,2021-10-08 17:14:11.457,0.3431924184163412,
1904,1904,7690,2021-10-08 17:14:11.461,-0.0874042510986328,
1905,1905,7694,2021-10-08 17:14:11.465,0.0421333312988281,
1906,1906,7698,2021-10-08 17:14:11.469,-0.2123101552327474,
1907,1907,7702,2021-10-08 17:14:11.473,-0.3121153513590495,
1908,1908,7706,2021-10-08 17:14:11.477,-0.0993569691975911,
1909,1909,7710,2021-10-08 17:14:11.481,-0.2741654713948568,
1910,1910,7714,2021-10-08 17:14:11.485,0.0107574462890625,
1911,1911,7718,2021-10-08 17:14:11.489,-0.2206770579020182,
1912,1912,7722,2021-10-08 17:14:11.493,-0.2811876932779948,
1913,1913,7726,2021-10-08 17:14:11.497,-0.1438808441162109,
1914,1914,7730,2021-10-08 17:14:11.501,-0.4791545867919922,
1915,1915,7734,2021-10-08 17:14:11.505,-0.100552241007487,
1916,1916,7738,2021-10-08 17:14:11.509,-0.2055867513020833,
1917,1917,7742,2021-10-08 17:14:11.513,-0.243686040242513,
1918,1918,7746,2021-10-08 17:14:11.517,-0.1129531860351562,
1919,1919,7750,2021-10-08 17:14:11.521,-0.4462846120198568,
1920,1920,7754,2021-10-08 17:14:11.525,-0.200506846110026,
1921,1921,7758,2021-10-08 17:14:11.529,-0.4035536448160808,
1922,1922,7762,2021-10-08 17:14:11.533,-0.2698326110839844,
1923,1923,7766,2021-10-08 17:14:11.537,0.0277900695800781,
1924,1924,7770,2021-10-08 17:14:11.541,-0.2935886383056641,
1925,1925,7774,2021-10-08 17:14:11.545,-0.0986099243164062,
1926,1926,7778,2021-10-08 17:14:11.549,-0.3145058949788412,
1927,1927,7782,2021-10-08 17:14:11.553,-0.372775395711263,
1928,1928,7786,2021-10-08 17:14:11.557,-0.1701768239339192,
1929,1929,7790,2021-10-08 17:14:11.561,-0.322424570719401,
1930,1930,7794,2021-10-08 17:14:11.565,-0.0088151295979817,
1931,1931,7798,2021-10-08 17:14:11.569,-0.2160453796386719,
1932,1932,7802,2021-10-08 17:14:11.573,-0.2681891123453776,
1933,1933,7806,2021-10-08 17:14:11.577,-0.100253423055013,
1934,1934,7810,2021-10-08 17:14:11.581,-0.4270108540852865,
1935,1935,7814,2021-10-08 17:14:11.585,-0.1887035369873047,
1936,1936,7818,2021-10-08 17:14:11.589,-0.2499612172444661,
1937,1937,7822,2021-10-08 17:14:11.593,-0.1830259958902995,
1938,1938,7826,2021-10-08 17:14:11.597,-0.0076198577880859,
1939,1939,7830,2021-10-08 17:14:11.601,-0.351858139038086,
1940,1940,7834,2021-10-08 17:14:11.605,-0.1157919565836588,
1941,1941,7838,2021-10-08 17:14:11.609,-0.3430430094401042,
1942,1942,7842,2021-10-08 17:14:11.613,-0.2995649973551432,
1943,1943,7846,2021-10-08 17:14:11.617,0.0198713938395182,
1944,1944,7850,2021-10-08 17:14:11.621,-0.2687867482503255,
1945,1945,7854,2021-10-08 17:14:11.625,-0.0800832112630208,
1946,1946,7858,2021-10-08 17:14:11.629,-0.3164482116699219,
1947,1947,7862,2021-10-08 17:14:11.633,-0.3412501017252604,
1948,1948,7866,2021-10-08 17:14:11.637,-0.1984151204427083,
1949,1949,7870,2021-10-08 17:14:11.641,-0.4900614420572917,
1950,1950,7874,2021-10-08 17:14:11.645,-0.10040283203125,
1951,1951,7878,2021-10-08 17:14:11.649,-0.2505588531494141,
1952,1952,7882,2021-10-08 17:14:11.653,-0.3209304809570313,
1953,1953,7886,2021-10-08 17:14:11.657,-0.1742108662923177,
1954,1954,7890,2021-10-08 17:14:11.661,-0.4796028137207032,
1955,1955,7894,2021-10-08 17:14:11.665,-0.2610174814860026,
1956,1956,7898,2021-10-08 17:14:11.669,-0.3454335530598958,
1957,1957,7902,2021-10-08 17:14:11.673,-0.2218723297119141,
1958,1958,7906,2021-10-08 17:14:11.677,-0.0044822692871093,
1959,1959,7910,2021-10-08 17:14:11.681,-0.3364690144856771,
1960,1960,7914,2021-10-08 17:14:11.685,-0.1042874654134114,
1961,1961,7918,2021-10-08 17:14:11.689,-0.287014643351237,
1962,1962,7922,2021-10-08 17:14:11.693,-0.336917241414388,
1963,1963,7926,2021-10-08 17:14:11.697,-0.0802326202392578,
1964,1964,7930,2021-10-08 17:14:11.701,-0.2408472696940104,
1965,1965,7934,2021-10-08 17:14:11.705,0.0336170196533203,
1966,1966,7938,2021-10-08 17:14:11.709,-0.1979668935139974,
1967,1967,7942,2021-10-08 17:14:11.713,-0.2496623992919922,
1968,1968,7946,2021-10-08 17:14:11.717,-0.0989087422688802,
1969,1969,7950,2021-10-08 17:14:11.721,-0.4247697194417318,
1970,1970,7954,2021-10-08 17:14:11.725,-0.035858154296875,
1971,1971,7958,2021-10-08 17:14:11.729,-0.1316293080647786,
1972,1972,7962,2021-10-08 17:14:11.733,-0.1776472727457682,
1973,1973,7966,2021-10-08 17:14:11.737,-0.0555801391601562,
1974,1974,7970,2021-10-08 17:14:11.741,-0.3953361511230469,
1975,1975,7974,2021-10-08 17:14:11.745,-0.1674874623616536,
1976,1976,7978,2021-10-08 17:14:11.749,-0.3742694854736328,
1977,1977,7982,2021-10-08 17:14:11.753,-0.2433872222900391,
1978,1978,7986,2021-10-08 17:14:11.757,0.0412368774414062,
1979,1979,7990,2021-10-08 17:14:11.761,-0.2964274088541667,
1980,1980,7994,2021-10-08 17:14:11.765,-0.1193777720133463,
1981,1981,7998,2021-10-08 17:14:11.769,-0.3533522288004557,
1982,1982,8002,2021-10-08 17:14:11.773,-0.4102770487467448,
1983,1983,8006,2021-10-08 17:14:11.777,-0.1885541280110677,
1984,1984,8010,2021-10-08 17:14:11.781,-0.322723388671875,
1985,1985,8014,2021-10-08 17:14:11.785,-0.006723403930664,
1986,1986,8018,2021-10-08 17:14:11.789,-0.2241134643554687,
1987,1987,8022,2021-10-08 17:14:11.793,-0.2837276458740235,
1988,1988,8026,2021-10-08 17:14:11.797,-0.1189295450846354,
1989,1989,8030,2021-10-08 17:14:11.801,-0.4571914672851563,
1990,1990,8034,2021-10-08 17:14:11.805,-0.193634033203125,
1991,1991,8038,2021-10-08 17:14:11.809,-0.2245616912841797,
1992,1992,8042,2021-10-08 17:14:11.813,-0.1773484547932942,
1993,1993,8046,2021-10-08 17:14:11.817,-0.0262959798177083,
1994,1994,8050,2021-10-08 17:14:11.821,-0.3738212585449219,
1995,1995,8054,2021-10-08 17:14:11.825,-0.1449267069498698,
1996,1996,8058,2021-10-08 17:14:11.829,-0.3754647572835287,
1997,1997,8062,2021-10-08 17:14:11.833,-0.293738047281901,
1998,1998,8066,2021-10-08 17:14:11.837,0.042880376180013,
1999,1999,8070,2021-10-08 17:14:11.841,-0.251156489054362,
2000,2000,8074,2021-10-08 17:14:11.845,-0.0773938496907552,
2001,2001,8078,2021-10-08 17:14:11.849,-0.3269068400065104,
2002,2002,8082,2021-10-08 17:14:11.853,-0.3526051839192708,
2003,2003,8086,2021-10-08 17:14:11.857,-0.2097702026367187,
2004,2004,8090,2021-10-08 17:14:11.861,-0.4415035247802735,
2005,2005,8094,2021-10-08 17:14:11.865,-0.0218137105305989,
2006,2006,8098,2021-10-08 17:14:11.869,-0.0038846333821614,
2007,2007,8102,2021-10-08 17:14:11.873,-0.3041966756184896,
2008,2008,8106,2021-10-08 17:14:11.877,-0.1183319091796875,
2009,2009,8110,2021-10-08 17:14:11.881,-0.4652595520019532,
2010,2010,8114,2021-10-08 17:14:11.885,-0.3685919443766276,
2011,2011,8118,2021-10-08 17:14:11.889,-0.2306874593098958,
2012,2012,8122,2021-10-08 17:14:11.893,-0.2536964416503907,
2013,2013,8126,2021-10-08 17:14:11.897,0.0484085083007812,
2014,2014,8130,2021-10-08 17:14:11.901,-0.3145058949788412,
2015,2015,8134,2021-10-08 17:14:11.905,-0.2099196116129557,
2016,2016,8138,2021-10-08 17:14:11.909,-0.2147006988525391,
2017,2017,8142,2021-10-08 17:14:11.913,-0.4174486796061198,
2018,2018,8146,2021-10-08 17:14:11.917,-0.0246524810791015,
2019,2019,8150,2021-10-08 17:14:11.921,-0.2333768208821615,
2020,2020,8154,2021-10-08 17:14:11.925,-0.1117579142252604,
2021,2021,8158,2021-10-08 17:14:11.929,-0.1498572031656901,
2022,2022,8162,2021-10-08 17:14:11.933,-0.3614203135172526,
2023,2023,8166,2021-10-08 17:14:11.937,-0.1196765899658203,
2024,2024,8170,2021-10-08 17:14:11.941,-0.4506174723307292,
2025,2025,8174,2021-10-08 17:14:11.945,-0.1601664225260416,
2026,2026,8178,2021-10-08 17:14:11.949,-0.0551319122314453,
2027,2027,8182,2021-10-08 17:14:11.953,-0.2525011698404948,
2028,2028,8186,2021-10-08 17:14:11.957,-0.0304794311523437,
2029,2029,8190,2021-10-08 17:14:11.961,-0.3760623931884766,
2030,2030,8194,2021-10-08 17:14:11.965,-0.2844746907552083,
2031,2031,8198,2021-10-08 17:14:11.969,-0.2986685434977214,
2032,2032,8202,2021-10-08 17:14:11.973,-0.3249645233154297,
2033,2033,8206,2021-10-08 17:14:11.977,0.0944264729817708,
2034,2034,8210,2021-10-08 17:14:11.981,-0.1685333251953125,
2035,2035,8214,2021-10-08 17:14:11.985,-0.3207810719807943,
2036,2036,8218,2021-10-08 17:14:11.989,-0.2021503448486328,
2037,2037,8222,2021-10-08 17:14:11.993,-0.5206902821858724,
2038,2038,8226,2021-10-08 17:14:11.997,-0.2040926615397135,
2039,2039,8230,2021-10-08 17:14:12.001,-0.1855659484863281,
2040,2040,8234,2021-10-08 17:14:12.005,-0.1585229237874349,
2041,2041,8238,2021-10-08 17:14:12.009,-0.0203196207682291,
2042,2042,8242,2021-10-08 17:14:12.013,-0.3650061289469401,
2043,2043,8246,2021-10-08 17:14:12.017,-0.136410395304362,
2044,2044,8250,2021-10-08 17:14:12.021,-0.3636614481608073,
2045,2045,8254,2021-10-08 17:14:12.025,-0.3384113311767578,
2046,2046,8258,2021-10-08 17:14:12.029,0.0185267130533854,
2047,2047,8262,2021-10-08 17:14:12.033,-0.2450307210286458,
