,Unnamed: 0,Tick Time,RTC Time,ECG,marker
0,0,47,2021-09-27 15:07:26.875,-0.3286997477213542,
1,1,51,2021-09-27 15:07:26.879,-0.042581558227539,
2,2,55,2021-09-27 15:07:26.883,-0.366051991780599,
3,3,59,2021-09-27 15:07:26.887,-0.0735092163085937,
4,4,63,2021-09-27 15:07:26.891,-0.2551905314127604,
5,5,67,2021-09-27 15:07:26.895,-0.3413995107014974,
6,6,71,2021-09-27 15:07:26.899,-0.0676822662353515,
7,7,75,2021-09-27 15:07:26.903,-0.3910032908121745,
8,8,79,2021-09-27 15:07:26.907,-0.0799338022867838,
9,9,83,2021-09-27 15:07:26.911,-0.243686040242513,
10,10,87,2021-09-27 15:07:26.915,-0.3254127502441407,
11,11,91,2021-09-27 15:07:26.919,-0.0440756479899088,
12,12,95,2021-09-27 15:07:26.923,-0.3753153483072917,
13,13,99,2021-09-27 15:07:26.927,-0.0754515329996744,
14,14,103,2021-09-27 15:07:26.931,-0.2351697285970052,
15,15,107,2021-09-27 15:07:26.935,-0.3106212615966797,
16,16,111,2021-09-27 15:07:26.939,-0.0510978698730468,
17,17,115,2021-09-27 15:07:26.943,-0.409231185913086,
18,18,119,2021-09-27 15:07:26.947,-0.114148457845052,
19,19,123,2021-09-27 15:07:26.951,-0.2662467956542969,
20,20,127,2021-09-27 15:07:26.955,-0.3379631042480469,
21,21,131,2021-09-27 15:07:26.959,-0.0537872314453125,
22,22,135,2021-09-27 15:07:26.963,-0.3721777598063151,
23,23,139,2021-09-27 15:07:26.967,-0.0600624084472656,
24,24,143,2021-09-27 15:07:26.971,-0.2285957336425781,
25,25,147,2021-09-27 15:07:26.975,-0.3194363911946615,
26,26,151,2021-09-27 15:07:26.979,-0.0463167826334635,
27,27,155,2021-09-27 15:07:26.983,-0.3777058919270833,
28,28,159,2021-09-27 15:07:26.987,-0.078589121500651,
29,29,163,2021-09-27 15:07:26.991,-0.2493635813395182,
30,30,167,2021-09-27 15:07:26.995,-0.3431924184163412,
31,31,171,2021-09-27 15:07:26.999,-0.0729115804036458,
32,32,175,2021-09-27 15:07:27.003,-0.4004160563151042,
33,33,179,2021-09-27 15:07:27.007,-0.0799338022867838,
34,34,183,2021-09-27 15:07:27.011,-0.2423413594563802,
35,35,187,2021-09-27 15:07:27.015,-0.3487205505371094,
36,36,191,2021-09-27 15:07:27.019,-0.0905418395996093,
37,37,195,2021-09-27 15:07:27.023,-0.4340330759684245,
38,38,199,2021-09-27 15:07:27.027,-0.1278940836588541,
39,39,203,2021-09-27 15:07:27.031,-0.272671381632487,
40,40,207,2021-09-27 15:07:27.035,-0.3137588500976563,
41,41,211,2021-09-27 15:07:27.039,-0.0097115834554036,
42,42,215,2021-09-27 15:07:27.043,-0.351111094156901,
43,43,219,2021-09-27 15:07:27.047,-0.0636482238769531,
44,44,223,2021-09-27 15:07:27.051,-0.2350203196207682,
45,45,227,2021-09-27 15:07:27.055,-0.3206316630045573,
46,46,231,2021-09-27 15:07:27.059,-0.0410874684651692,
47,47,235,2021-09-27 15:07:27.063,-0.3791999816894532,
48,48,239,2021-09-27 15:07:27.067,-0.0817267100016276,
49,49,243,2021-09-27 15:07:27.071,-0.2477200826009115,
50,50,247,2021-09-27 15:07:27.075,-0.3419971466064453,
51,51,251,2021-09-27 15:07:27.079,-0.0623035430908203,
52,52,255,2021-09-27 15:07:27.083,-0.4025077819824219,
53,53,259,2021-09-27 15:07:27.087,-0.0851631164550781,
54,54,263,2021-09-27 15:07:27.091,-0.193932851155599,
55,55,267,2021-09-27 15:07:27.095,-0.1963233947753906,
56,56,271,2021-09-27 15:07:27.099,0.1703262329101562,
57,57,275,2021-09-27 15:07:27.103,-0.071417490641276,
58,58,279,2021-09-27 15:07:27.107,0.2735678354899089,
59,59,283,2021-09-27 15:07:27.111,0.0960699717203776,
60,60,287,2021-09-27 15:07:27.115,-0.0760491689046224,
61,61,291,2021-09-27 15:07:27.119,-0.0379498799641927,
62,62,295,2021-09-27 15:07:27.123,-0.7099914550781251,
63,63,299,2021-09-27 15:07:27.127,-0.7277711232503256,
64,64,303,2021-09-27 15:07:27.131,-1.0282325744628908,
65,65,307,2021-09-27 15:07:27.135,-1.0865020751953127,
66,66,311,2021-09-27 15:07:27.139,-0.6263224283854167,
67,67,315,2021-09-27 15:07:27.143,-0.6629276275634767,
68,68,319,2021-09-27 15:07:27.147,-0.1126543680826823,
69,69,323,2021-09-27 15:07:27.151,-0.0875536600748698,
70,70,327,2021-09-27 15:07:27.155,-0.0848642985026041,
71,71,331,2021-09-27 15:07:27.159,0.207827885945638,
72,72,335,2021-09-27 15:07:27.163,-0.1320775349934896,
73,73,339,2021-09-27 15:07:27.167,0.1408926645914713,
74,74,343,2021-09-27 15:07:27.171,-0.0509484608968099,
75,75,347,2021-09-27 15:07:27.175,-0.1688321431477864,
76,76,351,2021-09-27 15:07:27.179,0.0732103983561198,
77,77,355,2021-09-27 15:07:27.183,-0.2900028228759766,
78,78,359,2021-09-27 15:07:27.187,-0.0086657206217447,
79,79,363,2021-09-27 15:07:27.191,-0.1867612202962239,
80,80,367,2021-09-27 15:07:27.195,-0.2753607432047526,
81,81,371,2021-09-27 15:07:27.199,-0.0177796681722005,
82,82,375,2021-09-27 15:07:27.203,-0.3684425354003907,
83,83,379,2021-09-27 15:07:27.207,-0.0772444407145182,
84,84,383,2021-09-27 15:07:27.211,-0.2535470326741537,
85,85,387,2021-09-27 15:07:27.215,-0.3399054209391276,
86,86,391,2021-09-27 15:07:27.219,-0.0720151265462239,
87,87,395,2021-09-27 15:07:27.223,-0.3908538818359375,
88,88,399,2021-09-27 15:07:27.227,-0.078290303548177,
89,89,403,2021-09-27 15:07:27.231,-0.2608680725097657,
90,90,407,2021-09-27 15:07:27.235,-0.3636614481608073,
91,91,411,2021-09-27 15:07:27.239,-0.0956217447916666,
92,92,415,2021-09-27 15:07:27.243,-0.4123687744140625,
93,93,419,2021-09-27 15:07:27.247,-0.100253423055013,
94,94,423,2021-09-27 15:07:27.251,-0.2732690175374349,
95,95,427,2021-09-27 15:07:27.255,-0.3464794158935547,
96,96,431,2021-09-27 15:07:27.259,-0.0691763559977213,
97,97,435,2021-09-27 15:07:27.263,-0.3989219665527344,
98,98,439,2021-09-27 15:07:27.267,-0.0877030690511067,
99,99,443,2021-09-27 15:07:27.271,-0.2381579081217448,
100,100,447,2021-09-27 15:07:27.275,-0.3174940745035807,
101,101,451,2021-09-27 15:07:27.279,-0.0372028350830078,
102,102,455,2021-09-27 15:07:27.283,-0.3827857971191407,
103,103,459,2021-09-27 15:07:27.287,-0.0945758819580078,
104,104,463,2021-09-27 15:07:27.291,-0.2613162994384766,
105,105,467,2021-09-27 15:07:27.295,-0.3388595581054688,
106,106,471,2021-09-27 15:07:27.299,-0.042432149251302,
107,107,475,2021-09-27 15:07:27.303,-0.380544662475586,
108,108,479,2021-09-27 15:07:27.307,-0.0921853383382161,
109,109,483,2021-09-27 15:07:27.311,-0.2533976236979167,
110,110,487,2021-09-27 15:07:27.315,-0.3324349721272787,
111,111,491,2021-09-27 15:07:27.319,-0.0491555531819661,
112,112,495,2021-09-27 15:07:27.323,-0.3841304779052735,
113,113,499,2021-09-27 15:07:27.327,-0.0842666625976562,
114,114,503,2021-09-27 15:07:27.331,-0.2377096811930338,
115,115,507,2021-09-27 15:07:27.335,-0.2953815460205078,
116,116,511,2021-09-27 15:07:27.339,-0.035409927368164,
117,117,515,2021-09-27 15:07:27.343,-0.4029560089111328,
118,118,519,2021-09-27 15:07:27.347,-0.1201248168945312,
119,119,523,2021-09-27 15:07:27.351,-0.2825323740641276,
120,120,527,2021-09-27 15:07:27.355,-0.3463300069173177,
121,121,531,2021-09-27 15:07:27.359,-0.0561777750651041,
122,122,535,2021-09-27 15:07:27.363,-0.3824869791666667,
123,123,539,2021-09-27 15:07:27.367,-0.0736586252848307,
124,124,543,2021-09-27 15:07:27.371,-0.2429389953613281,
125,125,547,2021-09-27 15:07:27.375,-0.330193837483724,
126,126,551,2021-09-27 15:07:27.379,-0.0679810841878255,
127,127,555,2021-09-27 15:07:27.383,-0.4051971435546875,
128,128,559,2021-09-27 15:07:27.387,-0.093081792195638,
129,129,563,2021-09-27 15:07:27.391,-0.236663818359375,
130,130,567,2021-09-27 15:07:27.395,-0.3124141693115235,
131,131,571,2021-09-27 15:07:27.399,-0.0522931416829427,
132,132,575,2021-09-27 15:07:27.403,-0.4120699564615886,
133,133,579,2021-09-27 15:07:27.407,-0.114895502726237,
134,134,583,2021-09-27 15:07:27.411,-0.2847735087076823,
135,135,587,2021-09-27 15:07:27.415,-0.3705342610677083,
136,136,591,2021-09-27 15:07:27.419,-0.0733598073323567,
137,137,595,2021-09-27 15:07:27.423,-0.3818893432617188,
138,138,599,2021-09-27 15:07:27.427,-0.0709692637125651,
139,139,603,2021-09-27 15:07:27.431,-0.2326297760009766,
140,140,607,2021-09-27 15:07:27.435,-0.3183905283610026,
141,141,611,2021-09-27 15:07:27.439,-0.0470638275146484,
142,142,615,2021-09-27 15:07:27.443,-0.3766600290934245,
143,143,619,2021-09-27 15:07:27.447,-0.0687281290690104,
144,144,623,2021-09-27 15:07:27.451,-0.2330780029296875,
145,145,627,2021-09-27 15:07:27.455,-0.3104718526204427,
146,146,631,2021-09-27 15:07:27.459,-0.035260518391927,
147,147,635,2021-09-27 15:07:27.463,-0.3851763407389323,
148,148,639,2021-09-27 15:07:27.467,-0.0962193806966145,
149,149,643,2021-09-27 15:07:27.471,-0.2519035339355469,
150,150,647,2021-09-27 15:07:27.475,-0.3198846181233724,
151,151,651,2021-09-27 15:07:27.479,-0.0481096903483072,
152,152,655,2021-09-27 15:07:27.483,-0.395037333170573,
153,153,659,2021-09-27 15:07:27.487,-0.0954723358154297,
154,154,663,2021-09-27 15:07:27.491,-0.2643044789632162,
155,155,667,2021-09-27 15:07:27.495,-0.3336302439371745,
156,156,671,2021-09-27 15:07:27.499,-0.0265947977701822,
157,157,675,2021-09-27 15:07:27.503,-0.3463300069173177,
158,158,679,2021-09-27 15:07:27.507,-0.0516955057779947,
159,159,683,2021-09-27 15:07:27.511,-0.2275498708089193,
160,160,688,2021-09-27 15:07:27.516,-0.3278032938639323,
161,161,692,2021-09-27 15:07:27.520,-0.0760491689046224,
162,162,696,2021-09-27 15:07:27.524,-0.423723856608073,
163,163,700,2021-09-27 15:07:27.528,-0.1014486948649088,
164,164,704,2021-09-27 15:07:27.532,-0.2147006988525391,
165,165,708,2021-09-27 15:07:27.536,-0.2983697255452474,
166,166,712,2021-09-27 15:07:27.540,-0.0249512990315755,
167,167,716,2021-09-27 15:07:27.544,-0.3742694854736328,
168,168,720,2021-09-27 15:07:27.548,-0.0878524780273437,
169,169,724,2021-09-27 15:07:27.552,-0.2463754018147786,
170,170,728,2021-09-27 15:07:27.556,-0.3428936004638672,
171,171,732,2021-09-27 15:07:27.560,-0.0627517700195312,
172,172,736,2021-09-27 15:07:27.564,-0.395037333170573,
173,173,740,2021-09-27 15:07:27.568,-0.1033910115559895,
174,174,744,2021-09-27 15:07:27.572,-0.2519035339355469,
175,175,748,2021-09-27 15:07:27.576,-0.3376642862955729,
176,176,751,2021-09-27 15:07:27.579,-0.0599129994710286,
177,177,755,2021-09-27 15:07:27.583,-0.3899574279785157,
178,178,759,2021-09-27 15:07:27.587,-0.0900936126708984,
179,179,763,2021-09-27 15:07:27.591,-0.2568340301513672,
180,180,767,2021-09-27 15:07:27.595,-0.3433418273925782,
181,181,771,2021-09-27 15:07:27.599,-0.0696245829264323,
182,182,775,2021-09-27 15:07:27.603,-0.4044500986735027,
183,183,779,2021-09-27 15:07:27.607,-0.0884501139322916,
184,184,783,2021-09-27 15:07:27.611,-0.2362155914306641,
185,185,787,2021-09-27 15:07:27.615,-0.3164482116699219,
186,186,791,2021-09-27 15:07:27.619,-0.0403404235839843,
187,187,795,2021-09-27 15:07:27.623,-0.3936926523844402,
188,188,799,2021-09-27 15:07:27.627,-0.1178836822509765,
189,189,803,2021-09-27 15:07:27.631,-0.287164052327474,
190,190,807,2021-09-27 15:07:27.635,-0.365902582804362,
191,191,811,2021-09-27 15:07:27.639,0.0989087422688802,
192,192,815,2021-09-27 15:07:27.643,-0.2680397033691407,
193,193,819,2021-09-27 15:07:27.647,-0.2211252848307291,
194,194,823,2021-09-27 15:07:27.651,-0.1931858062744141,
195,195,827,2021-09-27 15:07:27.655,-0.4415035247802735,
196,196,831,2021-09-27 15:07:27.659,-0.0488567352294921,
197,197,835,2021-09-27 15:07:27.663,-0.3482723236083985,
198,198,839,2021-09-27 15:07:27.667,-0.2130572001139323,
199,199,843,2021-09-27 15:07:27.671,-0.1269976298014323,
200,200,847,2021-09-27 15:07:27.675,-0.3753153483072917,
201,201,851,2021-09-27 15:07:27.679,-0.0183773040771484,
202,202,855,2021-09-27 15:07:27.683,-0.3307914733886719,
203,203,859,2021-09-27 15:07:27.687,-0.2185853322347005,
204,204,863,2021-09-27 15:07:27.691,-0.1677862803141276,
205,205,867,2021-09-27 15:07:27.695,-0.3977266947428386,
206,206,871,2021-09-27 15:07:27.699,0.0103092193603515,
207,207,875,2021-09-27 15:07:27.703,-0.2829806009928385,
208,208,879,2021-09-27 15:07:27.707,-0.1671886444091797,
209,209,883,2021-09-27 15:07:27.711,-0.1262505849202474,
210,210,887,2021-09-27 15:07:27.715,-0.3957843780517578,
211,211,891,2021-09-27 15:07:27.719,-0.0309276580810546,
212,212,895,2021-09-27 15:07:27.723,-0.351559321085612,
213,213,899,2021-09-27 15:07:27.727,-0.2320321400960286,
214,214,903,2021-09-27 15:07:27.731,-0.1526959737141927,
215,215,907,2021-09-27 15:07:27.735,-0.3811422983805339,
216,216,911,2021-09-27 15:07:27.739,-0.0008964538574218,
217,217,915,2021-09-27 15:07:27.743,-0.3316879272460938,
218,218,919,2021-09-27 15:07:27.747,-0.2211252848307291,
219,219,923,2021-09-27 15:07:27.751,-0.1479148864746094,
220,220,927,2021-09-27 15:07:27.755,-0.394439697265625,
221,221,931,2021-09-27 15:07:27.759,-0.0304794311523437,
222,222,935,2021-09-27 15:07:27.763,-0.3433418273925782,
223,223,939,2021-09-27 15:07:27.767,-0.2254581451416016,
224,224,943,2021-09-27 15:07:27.771,-0.1571782430013021,
225,225,947,2021-09-27 15:07:27.775,-0.3823375701904297,
226,226,951,2021-09-27 15:07:27.779,0.0088151295979817,
227,227,955,2021-09-27 15:07:27.783,-0.3098742167154948,
228,228,959,2021-09-27 15:07:27.787,-0.215447743733724,
229,229,963,2021-09-27 15:07:27.791,-0.1815319061279297,
230,230,967,2021-09-27 15:07:27.795,-0.4325389862060547,
231,231,971,2021-09-27 15:07:27.799,-0.0297323862711588,
232,232,975,2021-09-27 15:07:27.803,-0.3191375732421875,
233,233,979,2021-09-27 15:07:27.807,-0.2064832051595052,
234,234,983,2021-09-27 15:07:27.811,-0.157626469930013,
235,235,987,2021-09-27 15:07:27.815,-0.4135640462239583,
236,236,991,2021-09-27 15:07:27.819,-0.0246524810791015,
237,237,995,2021-09-27 15:07:27.823,-0.2946345011393229,
238,238,999,2021-09-27 15:07:27.827,-0.1246070861816406,
239,239,1003,2021-09-27 15:07:27.831,-0.0667858123779297,
240,240,1007,2021-09-27 15:07:27.835,-0.4132652282714844,
241,241,1011,2021-09-27 15:07:27.839,-0.107574462890625,
242,242,1015,2021-09-27 15:07:27.843,-0.3759129842122396,
243,243,1019,2021-09-27 15:07:27.847,-0.2000586191813151,
244,244,1023,2021-09-27 15:07:27.851,-0.1108614603678385,
245,245,1027,2021-09-27 15:07:27.855,-0.3956349690755208,
246,246,1031,2021-09-27 15:07:27.859,-0.0493049621582031,
247,247,1035,2021-09-27 15:07:27.863,-0.3499158223470052,
248,248,1039,2021-09-27 15:07:27.867,-0.1825777689615885,
249,249,1043,2021-09-27 15:07:27.871,-0.0935300191243489,
250,250,1047,2021-09-27 15:07:27.875,-0.3694883982340495,
251,251,1051,2021-09-27 15:07:27.879,-0.0733598073323567,
252,252,1055,2021-09-27 15:07:27.883,-0.4132652282714844,
253,253,1059,2021-09-27 15:07:27.887,-0.250708262125651,
254,254,1063,2021-09-27 15:07:27.891,-0.1411914825439453,
255,255,1067,2021-09-27 15:07:27.895,-0.3540992736816407,
256,256,1071,2021-09-27 15:07:27.899,0.0382486979166666,
257,257,1075,2021-09-27 15:07:27.903,-0.2919451395670573,
258,258,1079,2021-09-27 15:07:27.907,-0.2097702026367187,
259,259,1083,2021-09-27 15:07:27.911,-0.1812330881754557,
260,260,1087,2021-09-27 15:07:27.915,-0.4288037618001302,
261,261,1091,2021-09-27 15:07:27.919,-0.0448226928710937,
262,262,1095,2021-09-27 15:07:27.923,-0.344387690226237,
263,263,1099,2021-09-27 15:07:27.927,-0.1948293050130208,
264,264,1103,2021-09-27 15:07:27.931,-0.1168378194173177,
265,265,1107,2021-09-27 15:07:27.935,-0.3762118021647135,
266,266,1111,2021-09-27 15:07:27.939,-0.0192737579345703,
267,267,1115,2021-09-27 15:07:27.943,-0.3396066029866537,
268,268,1119,2021-09-27 15:07:27.947,-0.2123101552327474,
269,269,1123,2021-09-27 15:07:27.951,-0.1407432556152344,
270,270,1127,2021-09-27 15:07:27.955,-0.3890609741210938,
271,271,1131,2021-09-27 15:07:27.959,-0.0307782491048177,
272,272,1135,2021-09-27 15:07:27.963,-0.3520075480143229,
273,273,1139,2021-09-27 15:07:27.967,-0.2085749308268229,
274,274,1143,2021-09-27 15:07:27.971,-0.1259517669677734,
275,275,1147,2021-09-27 15:07:27.975,-0.3679943084716797,
276,276,1151,2021-09-27 15:07:27.979,-0.0050799051920572,
277,277,1155,2021-09-27 15:07:27.983,-0.323022206624349,
278,278,1159,2021-09-27 15:07:27.987,-0.2024491628011068,
279,279,1163,2021-09-27 15:07:27.991,-0.1658439636230469,
280,280,1167,2021-09-27 15:07:27.995,-0.423425038655599,
281,281,1171,2021-09-27 15:07:27.999,-0.0316747029622395,
282,282,1175,2021-09-27 15:07:28.003,-0.3174940745035807,
283,283,1179,2021-09-27 15:07:28.007,-0.2012538909912109,
284,284,1183,2021-09-27 15:07:28.011,-0.1706250508626302,
285,285,1187,2021-09-27 15:07:28.015,-0.4395612080891927,
286,286,1191,2021-09-27 15:07:28.019,-0.0664869944254557,
287,287,1195,2021-09-27 15:07:28.023,-0.3391583760579427,
288,288,1199,2021-09-27 15:07:28.027,-0.172119140625,
289,289,1203,2021-09-27 15:07:28.031,-0.0942770640055338,
290,290,1207,2021-09-27 15:07:28.035,-0.3578344980875651,
291,291,1211,2021-09-27 15:07:28.039,-0.0131479899088541,
292,292,1215,2021-09-27 15:07:28.043,-0.3573862711588542,
293,293,1219,2021-09-27 15:07:28.047,-0.229791005452474,
294,294,1223,2021-09-27 15:07:28.051,-0.114297866821289,
295,295,1227,2021-09-27 15:07:28.055,-0.3645579020182292,
296,296,1231,2021-09-27 15:07:28.059,0.0055281321207682,
297,297,1235,2021-09-27 15:07:28.063,-0.315402348836263,
298,298,1239,2021-09-27 15:07:28.067,-0.2247111002604166,
299,299,1243,2021-09-27 15:07:28.071,-0.1954269409179687,
300,300,1247,2021-09-27 15:07:28.075,-0.4470316569010417,
301,301,1251,2021-09-27 15:07:28.079,-0.0412368774414062,
302,302,1255,2021-09-27 15:07:28.083,-0.2911980946858724,
303,303,1259,2021-09-27 15:07:28.087,-0.0824737548828125,
304,304,1263,2021-09-27 15:07:28.091,0.071118672688802,
305,305,1267,2021-09-27 15:07:28.095,-0.1183319091796875,
306,306,1271,2021-09-27 15:07:28.099,0.3055413564046224,
307,307,1275,2021-09-27 15:07:28.103,0.0440756479899088,
308,308,1279,2021-09-27 15:07:28.107,0.1272964477539062,
309,309,1283,2021-09-27 15:07:28.111,0.0522931416829427,
310,310,1287,2021-09-27 15:07:28.115,-0.4997730255126953,
311,311,1291,2021-09-27 15:07:28.119,-0.5178515116373699,
312,312,1295,2021-09-27 15:07:28.123,-1.0881455739339194,
313,313,1299,2021-09-27 15:07:28.127,-1.07081413269043,
314,314,1303,2021-09-27 15:07:28.131,-0.8831564585367839,
315,315,1307,2021-09-27 15:07:28.135,-0.875088373819987,
316,316,1311,2021-09-27 15:07:28.139,-0.2426401774088541,
317,317,1315,2021-09-27 15:07:28.143,-0.3092765808105469,
318,318,1319,2021-09-27 15:07:28.147,-0.0188255310058593,
319,319,1323,2021-09-27 15:07:28.151,0.1198259989420573,
320,320,1327,2021-09-27 15:07:28.155,-0.114447275797526,
321,321,1331,2021-09-27 15:07:28.159,0.24383544921875,
322,322,1335,2021-09-27 15:07:28.163,-0.0800832112630208,
323,323,1339,2021-09-27 15:07:28.167,0.0185267130533854,
324,324,1343,2021-09-27 15:07:28.171,0.035708745320638,
325,325,1347,2021-09-27 15:07:28.175,-0.2647527058919271,
326,326,1351,2021-09-27 15:07:28.179,0.0745550791422526,
327,327,1355,2021-09-27 15:07:28.183,-0.257879892985026,
328,328,1359,2021-09-27 15:07:28.187,-0.1338704427083333,
329,329,1363,2021-09-27 15:07:28.191,-0.0741068522135416,
330,330,1367,2021-09-27 15:07:28.195,-0.3542486826578776,
331,331,1371,2021-09-27 15:07:28.199,-0.0366051991780599,
332,332,1375,2021-09-27 15:07:28.203,-0.3691895802815755,
333,333,1379,2021-09-27 15:07:28.207,-0.2383073170979818,
334,334,1383,2021-09-27 15:07:28.211,-0.1636028289794922,
335,335,1387,2021-09-27 15:07:28.215,-0.4038524627685547,
336,336,1391,2021-09-27 15:07:28.219,-0.0334676106770833,
337,337,1395,2021-09-27 15:07:28.223,-0.3282515207926432,
338,338,1399,2021-09-27 15:07:28.227,-0.1893011728922526,
339,339,1403,2021-09-27 15:07:28.231,-0.1352151234944661,
340,340,1407,2021-09-27 15:07:28.235,-0.4047489166259766,
341,341,1411,2021-09-27 15:07:28.239,-0.0528907775878906,
342,342,1415,2021-09-27 15:07:28.243,-0.351260503133138,
343,343,1419,2021-09-27 15:07:28.247,-0.2173900604248047,
344,344,1423,2021-09-27 15:07:28.251,-0.1682345072428385,
345,345,1427,2021-09-27 15:07:28.255,-0.4138628641764323,
346,346,1431,2021-09-27 15:07:28.259,-0.0518449147542317,
347,347,1435,2021-09-27 15:07:28.263,-0.3690401713053385,
348,348,1439,2021-09-27 15:07:28.267,-0.2351697285970052,
349,349,1443,2021-09-27 15:07:28.271,-0.1374562581380208,
350,350,1447,2021-09-27 15:07:28.275,-0.3672472635904948,
351,351,1451,2021-09-27 15:07:28.279,-0.042730967203776,
352,352,1455,2021-09-27 15:07:28.283,-0.38726806640625,
353,353,1459,2021-09-27 15:07:28.287,-0.2372614542643229,
354,354,1463,2021-09-27 15:07:28.291,-0.1304340362548828,
355,355,1467,2021-09-27 15:07:28.295,-0.3543980916341146,
356,356,1471,2021-09-27 15:07:28.299,0.0186761220296223,
357,357,1475,2021-09-27 15:07:28.303,-0.294335683186849,
358,358,1479,2021-09-27 15:07:28.307,-0.1740614573160807,
359,359,1483,2021-09-27 15:07:28.311,-0.1341692606608073,
360,360,1487,2021-09-27 15:07:28.315,-0.401760737101237,
361,361,1491,2021-09-27 15:07:28.319,-0.050201416015625,
362,362,1495,2021-09-27 15:07:28.323,-0.3627649943033854,
363,363,1499,2021-09-27 15:07:28.327,-0.2245616912841797,
364,364,1503,2021-09-27 15:07:28.331,-0.1458231608072916,
365,365,1507,2021-09-27 15:07:28.335,-0.3775564829508464,
366,366,1511,2021-09-27 15:07:28.339,-0.021066665649414,
367,367,1515,2021-09-27 15:07:28.343,-0.3430430094401042,
368,368,1519,2021-09-27 15:07:28.347,-0.214999516805013,
369,369,1523,2021-09-27 15:07:28.351,-0.1426855723063151,
370,370,1527,2021-09-27 15:07:28.355,-0.3847281138102214,
371,371,1531,2021-09-27 15:07:28.359,-0.0270430246988932,
372,372,1535,2021-09-27 15:07:28.363,-0.3397560119628907,
373,373,1539,2021-09-27 15:07:28.367,-0.2025985717773437,
374,374,1543,2021-09-27 15:07:28.371,-0.1516501108805338,
375,375,1547,2021-09-27 15:07:28.375,-0.4150581359863282,
376,376,1551,2021-09-27 15:07:28.379,-0.0443744659423828,
377,377,1555,2021-09-27 15:07:28.383,-0.358880360921224,
378,378,1559,2021-09-27 15:07:28.387,-0.2197806040445963,
379,379,1563,2021-09-27 15:07:28.391,-0.1531442006429036,
380,380,1567,2021-09-27 15:07:28.395,-0.4050477345784505,
381,381,1571,2021-09-27 15:07:28.399,-0.0413862864176432,
382,382,1575,2021-09-27 15:07:28.403,-0.3536510467529297,
383,383,1579,2021-09-27 15:07:28.407,-0.2105172475179036,
384,384,1583,2021-09-27 15:07:28.411,-0.1556841532389323,
385,385,1587,2021-09-27 15:07:28.415,-0.4149087270100912,
386,386,1591,2021-09-27 15:07:28.419,-0.0481096903483072,
387,387,1595,2021-09-27 15:07:28.423,-0.3488699595133464,
388,388,1599,2021-09-27 15:07:28.427,-0.2033456166585286,
389,389,1603,2021-09-27 15:07:28.431,-0.1438808441162109,
390,390,1607,2021-09-27 15:07:28.435,-0.3896586100260417,
391,391,1611,2021-09-27 15:07:28.439,-0.0064245859781901,
392,392,1615,2021-09-27 15:07:28.443,-0.301059087117513,
393,393,1619,2021-09-27 15:07:28.447,-0.1615111033121745,
394,394,1623,2021-09-27 15:07:28.451,-0.1139990488688151,
395,395,1627,2021-09-27 15:07:28.455,-0.3747177124023438,
396,396,1631,2021-09-27 15:07:28.459,-0.006723403930664,
397,397,1635,2021-09-27 15:07:28.463,-0.3203328450520833,
398,398,1639,2021-09-27 15:07:28.467,-0.1816813151041666,
399,399,1643,2021-09-27 15:07:28.471,-0.1225153605143229,
400,400,1647,2021-09-27 15:07:28.475,-0.3953361511230469,
401,401,1651,2021-09-27 15:07:28.479,-0.0406392415364583,
402,402,1655,2021-09-27 15:07:28.483,-0.34423828125,
403,403,1659,2021-09-27 15:07:28.487,-0.1755555470784505,
404,404,1663,2021-09-27 15:07:28.491,-0.1105626424153645,
405,405,1667,2021-09-27 15:07:28.495,-0.394589106241862,
406,406,1671,2021-09-27 15:07:28.499,-0.0490061442057291,
407,407,1675,2021-09-27 15:07:28.503,-0.3669484456380208,
408,408,1679,2021-09-27 15:07:28.507,-0.2275498708089193,
409,409,1683,2021-09-27 15:07:28.511,-0.1428349812825521,
410,410,1687,2021-09-27 15:07:28.515,-0.358282725016276,
411,411,1691,2021-09-27 15:07:28.519,0.0316747029622395,
412,412,1695,2021-09-27 15:07:28.523,-0.3030014038085938,
413,413,1699,2021-09-27 15:07:28.527,-0.1839224497477213,
414,414,1703,2021-09-27 15:07:28.531,-0.1434326171875,
415,415,1707,2021-09-27 15:07:28.535,-0.4128170013427735,
416,416,1711,2021-09-27 15:07:28.539,-0.0479602813720703,
417,417,1715,2021-09-27 15:07:28.543,-0.3524557749430339,
418,418,1719,2021-09-27 15:07:28.547,-0.2161947886149088,
419,419,1723,2021-09-27 15:07:28.551,-0.1703262329101562,
420,420,1727,2021-09-27 15:07:28.555,-0.4183451334635417,
421,421,1731,2021-09-27 15:07:28.559,-0.0383981068929036,
422,422,1735,2021-09-27 15:07:28.563,-0.3499158223470052,
423,423,1739,2021-09-27 15:07:28.567,-0.2108160654703776,
424,424,1743,2021-09-27 15:07:28.571,-0.1302846272786458,
425,425,1747,2021-09-27 15:07:28.575,-0.3624661763509115,
426,426,1751,2021-09-27 15:07:28.579,0.006573994954427,
427,427,1755,2021-09-27 15:07:28.583,-0.3285503387451172,
428,428,1759,2021-09-27 15:07:28.587,-0.2088737487792969,
429,429,1763,2021-09-27 15:07:28.591,-0.1665910085042317,
430,430,1767,2021-09-27 15:07:28.595,-0.4152075449625652,
431,431,1771,2021-09-27 15:07:28.599,-0.0336170196533203,
432,432,1775,2021-09-27 15:07:28.603,-0.3467782338460287,
433,433,1779,2021-09-27 15:07:28.607,-0.2090231577555338,
434,434,1783,2021-09-27 15:07:28.611,-0.1377550760904948,
435,435,1787,2021-09-27 15:07:28.615,-0.380395253499349,
436,436,1791,2021-09-27 15:07:28.619,-0.0204690297444661,
437,437,1795,2021-09-27 15:07:28.623,-0.329745610555013,
438,438,1799,2021-09-27 15:07:28.627,-0.1873588562011719,
439,439,1803,2021-09-27 15:07:28.631,-0.1458231608072916,
440,440,1807,2021-09-27 15:07:28.635,-0.4171498616536458,
441,441,1811,2021-09-27 15:07:28.639,-0.0106080373128255,
442,442,1815,2021-09-27 15:07:28.643,-0.21514892578125,
443,443,1819,2021-09-27 15:07:28.647,-0.3548463185628255,
444,444,1823,2021-09-27 15:07:28.651,-0.1039886474609375,
445,445,1827,2021-09-27 15:07:28.655,-0.423723856608073,
446,446,1831,2021-09-27 15:07:28.659,-0.0956217447916666,
447,447,1835,2021-09-27 15:07:28.663,-0.251156489054362,
448,448,1839,2021-09-27 15:07:28.667,-0.3257115681966146,
449,449,1843,2021-09-27 15:07:28.671,-0.0494543711344401,
450,450,1847,2021-09-27 15:07:28.675,-0.3793493906656901,
451,451,1851,2021-09-27 15:07:28.679,-0.063947041829427,
452,452,1855,2021-09-27 15:07:28.683,-0.2333768208821615,
453,453,1859,2021-09-27 15:07:28.687,-0.3182411193847657,
454,454,1863,2021-09-27 15:07:28.691,-0.0612576802571614,
455,455,1867,2021-09-27 15:07:28.695,-0.4150581359863282,
456,456,1871,2021-09-27 15:07:28.699,-0.1092179616292317,
457,457,1875,2021-09-27 15:07:28.703,-0.2535470326741537,
458,458,1879,2021-09-27 15:07:28.707,-0.294036865234375,
459,459,1883,2021-09-27 15:07:28.711,-0.0124009450276692,
460,460,1887,2021-09-27 15:07:28.715,-0.3708330790201823,
461,461,1891,2021-09-27 15:07:28.719,-0.0833702087402343,
462,462,1895,2021-09-27 15:07:28.723,-0.258626937866211,
463,463,1899,2021-09-27 15:07:28.727,-0.3502146402994792,
464,464,1903,2021-09-27 15:07:28.731,-0.0775432586669922,
465,465,1907,2021-09-27 15:07:28.735,-0.3827857971191407,
466,466,1911,2021-09-27 15:07:28.739,-0.0584189097086588,
467,467,1915,2021-09-27 15:07:28.743,-0.2279980977376302,
468,468,1919,2021-09-27 15:07:28.747,-0.3076330820719401,
469,469,1923,2021-09-27 15:07:28.751,-0.0416851043701171,
470,470,1927,2021-09-27 15:07:28.755,-0.3962326049804688,
471,471,1931,2021-09-27 15:07:28.759,-0.1014486948649088,
472,472,1935,2021-09-27 15:07:28.763,-0.2677408854166667,
473,473,1939,2021-09-27 15:07:28.767,-0.3458817799886068,
474,474,1943,2021-09-27 15:07:28.771,-0.0678316752115885,
475,475,1947,2021-09-27 15:07:28.775,-0.3905550638834636,
476,476,1951,2021-09-27 15:07:28.779,-0.0724633534749349,
477,477,1955,2021-09-27 15:07:28.783,-0.2399508158365885,
478,478,1959,2021-09-27 15:07:28.787,-0.3185399373372396,
479,479,1963,2021-09-27 15:07:28.791,-0.0519943237304687,
480,480,1967,2021-09-27 15:07:28.795,-0.3963820139567058,
481,481,1971,2021-09-27 15:07:28.799,-0.0830713907877604,
482,482,1975,2021-09-27 15:07:28.803,-0.243984858194987,
483,483,1979,2021-09-27 15:07:28.807,-0.3322855631510417,
484,484,1983,2021-09-27 15:07:28.811,-0.0543848673502604,
485,485,1987,2021-09-27 15:07:28.815,-0.3665002187093099,
486,486,1991,2021-09-27 15:07:28.819,-0.0451215108235677,
487,487,1995,2021-09-27 15:07:28.823,-0.229193369547526,
488,488,1999,2021-09-27 15:07:28.827,-0.3378136952718099,
489,489,2003,2021-09-27 15:07:28.831,-0.0894959767659505,
490,490,2007,2021-09-27 15:07:28.835,-0.4346307118733724,
491,491,2011,2021-09-27 15:07:28.839,-0.1180330912272135,
492,492,2015,2021-09-27 15:07:28.843,-0.2459271748860677,
493,493,2019,2021-09-27 15:07:28.847,-0.2922439575195313,
494,494,2023,2021-09-27 15:07:28.851,-0.0158373514811197,
495,495,2027,2021-09-27 15:07:28.855,-0.3736718495686849,
496,496,2031,2021-09-27 15:07:28.859,-0.0830713907877604,
497,497,2035,2021-09-27 15:07:28.863,-0.2611668904622396,
498,498,2039,2021-09-27 15:07:28.867,-0.3549957275390625,
499,499,2043,2021-09-27 15:07:28.871,-0.0820255279541015,
500,500,2047,2021-09-27 15:07:28.875,-0.3992207845052083,
501,501,2051,2021-09-27 15:07:28.879,-0.0756009419759114,
502,502,2055,2021-09-27 15:07:28.883,-0.229791005452474,
503,503,2059,2021-09-27 15:07:28.887,-0.3182411193847657,
504,504,2063,2021-09-27 15:07:28.891,-0.057074228922526,
505,505,2067,2021-09-27 15:07:28.895,-0.3956349690755208,
506,506,2071,2021-09-27 15:07:28.899,-0.0726127624511718,
507,507,2075,2021-09-27 15:07:28.903,-0.2312850952148437,
508,508,2079,2021-09-27 15:07:28.907,-0.315850575764974,
509,509,2083,2021-09-27 15:07:28.911,-0.0484085083007812,
510,510,2087,2021-09-27 15:07:28.915,-0.3866704305013021,
511,511,2091,2021-09-27 15:07:28.919,-0.0814278920491536,
512,512,2095,2021-09-27 15:07:28.923,-0.2614657084147135,
513,513,2099,2021-09-27 15:07:28.927,-0.3538004557291667,
514,514,2103,2021-09-27 15:07:28.931,-0.0812784830729166,
515,515,2107,2021-09-27 15:07:28.935,-0.3941408793131511,
516,516,2111,2021-09-27 15:07:28.939,-0.0629011789957682,
517,517,2115,2021-09-27 15:07:28.943,-0.2260557810465495,
518,518,2119,2021-09-27 15:07:28.947,-0.3033002217610677,
519,519,2123,2021-09-27 15:07:28.951,-0.0340652465820312,
520,520,2127,2021-09-27 15:07:28.955,-0.3670978546142578,
521,521,2131,2021-09-27 15:07:28.959,-0.0606600443522135,
522,522,2135,2021-09-27 15:07:28.963,-0.2474212646484375,
523,523,2139,2021-09-27 15:07:28.967,-0.3478240966796875,
524,524,2143,2021-09-27 15:07:28.971,-0.0942770640055338,
525,525,2147,2021-09-27 15:07:28.975,-0.444790522257487,
526,526,2151,2021-09-27 15:07:28.979,-0.1301352183024088,
527,527,2155,2021-09-27 15:07:28.983,-0.2536964416503907,
528,528,2159,2021-09-27 15:07:28.987,-0.2947839101155599,
529,529,2163,2021-09-27 15:07:28.991,-0.0249512990315755,
530,530,2167,2021-09-27 15:07:28.995,-0.3887621561686198,
531,531,2171,2021-09-27 15:07:28.999,-0.1123555501302083,
532,532,2175,2021-09-27 15:07:29.003,-0.279693603515625,
533,533,2179,2021-09-27 15:07:29.007,-0.3406524658203125,
534,534,2183,2021-09-27 15:07:29.011,-0.0518449147542317,
535,535,2187,2021-09-27 15:07:29.015,-0.3920491536458333,
536,536,2191,2021-09-27 15:07:29.019,-0.0814278920491536,
537,537,2195,2021-09-27 15:07:29.023,-0.236962636311849,
538,538,2199,2021-09-27 15:07:29.027,-0.3182411193847657,
539,539,2203,2021-09-27 15:07:29.031,-0.0513966878255208,
540,540,2207,2021-09-27 15:07:29.035,-0.3753153483072917,
541,541,2211,2021-09-27 15:07:29.039,-0.0596141815185546,
542,542,2215,2021-09-27 15:07:29.043,-0.2300898234049479,
543,543,2219,2021-09-27 15:07:29.047,-0.3124141693115235,
544,544,2223,2021-09-27 15:07:29.051,-0.0505002339680989,
545,545,2227,2021-09-27 15:07:29.055,-0.3938420613606771,
546,546,2231,2021-09-27 15:07:29.059,-0.0763479868570963,
547,547,2235,2021-09-27 15:07:29.063,-0.1885541280110677,
548,548,2239,2021-09-27 15:07:29.067,-0.2196311950683594,
549,549,2243,2021-09-27 15:07:29.071,0.0917371114095052,
550,550,2247,2021-09-27 15:07:29.075,-0.1438808441162109,
551,551,2251,2021-09-27 15:07:29.079,0.2587763468424479,
552,552,2255,2021-09-27 15:07:29.083,0.1099650065104166,
553,553,2259,2021-09-27 15:07:29.087,-0.0394439697265625,
554,554,2263,2021-09-27 15:07:29.091,0.0434780120849609,
555,555,2267,2021-09-27 15:07:29.095,-0.6137720743815105,
556,556,2271,2021-09-27 15:07:29.099,-0.6479867299397787,
557,557,2275,2021-09-27 15:07:29.103,-0.9983507792154948,
558,558,2279,2021-09-27 15:07:29.107,-1.1035346984863283,
559,559,2283,2021-09-27 15:07:29.111,-0.681902567545573,
560,560,2287,2021-09-27 15:07:29.115,-0.7504812876383464,
561,561,2291,2021-09-27 15:07:29.119,-0.1766014099121094,
562,562,2295,2021-09-27 15:07:29.123,-0.114447275797526,
563,563,2299,2021-09-27 15:07:29.127,-0.0850137074788411,
564,564,2303,2021-09-27 15:07:29.131,0.2175394694010416,
565,565,2307,2021-09-27 15:07:29.135,-0.1305834452311198,
566,566,2311,2021-09-27 15:07:29.139,0.136111577351888,
567,567,2315,2021-09-27 15:07:29.143,-0.0649929046630859,
568,568,2319,2021-09-27 15:07:29.147,-0.1783943176269531,
569,569,2323,2021-09-27 15:07:29.151,0.0815773010253906,
570,570,2327,2021-09-27 15:07:29.155,-0.2684879302978516,
571,571,2331,2021-09-27 15:07:29.159,0.0188255310058593,
572,572,2335,2021-09-27 15:07:29.163,-0.1704756418863932,
573,573,2339,2021-09-27 15:07:29.167,-0.2732690175374349,
574,574,2343,2021-09-27 15:07:29.171,-0.0227101643880208,
575,575,2347,2021-09-27 15:07:29.175,-0.3666496276855469,
576,576,2351,2021-09-27 15:07:29.179,-0.0540860493977864,
577,577,2355,2021-09-27 15:07:29.183,-0.2248605092366536,
578,578,2359,2021-09-27 15:07:29.187,-0.3324349721272787,
579,579,2363,2021-09-27 15:07:29.191,-0.0817267100016276,
580,580,2367,2021-09-27 15:07:29.195,-0.4222297668457032,
581,581,2371,2021-09-27 15:07:29.199,-0.1283423105875651,
582,582,2375,2021-09-27 15:07:29.203,-0.2792453765869141,
583,583,2379,2021-09-27 15:07:29.207,-0.3282515207926432,
584,584,2383,2021-09-27 15:07:29.211,-0.0391451517740885,
585,585,2387,2021-09-27 15:07:29.215,-0.3860727945963542,
586,586,2391,2021-09-27 15:07:29.219,-0.1063791910807291,
587,587,2395,2021-09-27 15:07:29.223,-0.286865234375,
588,588,2399,2021-09-27 15:07:29.227,-0.3681437174479167,
589,589,2403,2021-09-27 15:07:29.231,-0.0800832112630208,
590,590,2407,2021-09-27 15:07:29.235,-0.3962326049804688,
591,591,2411,2021-09-27 15:07:29.239,-0.0841172536214192,
592,592,2415,2021-09-27 15:07:29.243,-0.2519035339355469,
593,593,2419,2021-09-27 15:07:29.247,-0.3360207875569662,
594,594,2423,2021-09-27 15:07:29.251,-0.0631999969482422,
595,595,2427,2021-09-27 15:07:29.255,-0.3930950164794922,
596,596,2431,2021-09-27 15:07:29.259,-0.0815773010253906,
597,597,2435,2021-09-27 15:07:29.263,-0.2339744567871094,
598,598,2439,2021-09-27 15:07:29.267,-0.3131612141927083,
599,599,2443,2021-09-27 15:07:29.271,-0.0548330942789713,
600,600,2447,2021-09-27 15:07:29.275,-0.3977266947428386,
601,601,2451,2021-09-27 15:07:29.279,-0.092782974243164,
602,602,2455,2021-09-27 15:07:29.283,-0.250708262125651,
603,603,2459,2021-09-27 15:07:29.287,-0.3182411193847657,
604,604,2463,2021-09-27 15:07:29.291,-0.0439262390136718,
605,605,2467,2021-09-27 15:07:29.295,-0.3636614481608073,
606,606,2471,2021-09-27 15:07:29.299,-0.0542354583740234,
607,607,2475,2021-09-27 15:07:29.303,-0.2262051900227865,
608,608,2479,2021-09-27 15:07:29.307,-0.3195858001708985,
609,609,2483,2021-09-27 15:07:29.311,-0.0702222188313802,
610,610,2487,2021-09-27 15:07:29.315,-0.4026571909586589,
611,611,2491,2021-09-27 15:07:29.319,-0.0906912485758463,
612,612,2495,2021-09-27 15:07:29.323,-0.2445824940999349,
613,613,2499,2021-09-27 15:07:29.327,-0.3215281168619792,
614,614,2503,2021-09-27 15:07:29.331,-0.0682799021402994,
615,615,2507,2021-09-27 15:07:29.335,-0.4050477345784505,
616,616,2511,2021-09-27 15:07:29.339,-0.0917371114095052,
617,617,2515,2021-09-27 15:07:29.343,-0.2359167734781901,
618,618,2519,2021-09-27 15:07:29.347,-0.3118165334065755,
619,619,2523,2021-09-27 15:07:29.351,-0.0521437327067057,
620,620,2527,2021-09-27 15:07:29.355,-0.3957843780517578,
621,621,2531,2021-09-27 15:07:29.359,-0.1128037770589192,
622,622,2535,2021-09-27 15:07:29.363,-0.2959791819254557,
623,623,2539,2021-09-27 15:07:29.367,-0.3769588470458985,
624,624,2543,2021-09-27 15:07:29.371,-0.0756009419759114,
625,625,2547,2021-09-27 15:07:29.375,-0.3917503356933594,
626,626,2551,2021-09-27 15:07:29.379,-0.0894959767659505,
627,627,2555,2021-09-27 15:07:29.383,-0.2613162994384766,
628,628,2559,2021-09-27 15:07:29.387,-0.3381125132242839,
629,629,2563,2021-09-27 15:07:29.391,-0.0623035430908203,
630,630,2567,2021-09-27 15:07:29.395,-0.3857739766438802,
631,631,2571,2021-09-27 15:07:29.399,-0.0803820292154948,
632,632,2575,2021-09-27 15:07:29.403,-0.2483177185058594,
633,633,2579,2021-09-27 15:07:29.407,-0.3360207875569662,
634,634,2583,2021-09-27 15:07:29.411,-0.0649929046630859,
635,635,2587,2021-09-27 15:07:29.415,-0.3787517547607422,
636,636,2591,2021-09-27 15:07:29.419,-0.0708198547363281,
637,637,2595,2021-09-27 15:07:29.423,-0.2147006988525391,
638,638,2599,2021-09-27 15:07:29.427,-0.2789465586344401,
639,639,2603,2021-09-27 15:07:29.431,-0.0153891245524088,
640,640,2607,2021-09-27 15:07:29.435,-0.3647073109944662,
641,641,2611,2021-09-27 15:07:29.439,-0.0869560241699218,
642,642,2615,2021-09-27 15:07:29.443,-0.2568340301513672,
643,643,2619,2021-09-27 15:07:29.447,-0.344088872273763,
644,644,2623,2021-09-27 15:07:29.451,-0.0750033060709635,
645,645,2627,2021-09-27 15:07:29.455,-0.3896586100260417,
646,646,2631,2021-09-27 15:07:29.459,-0.0708198547363281,
647,647,2635,2021-09-27 15:07:29.463,-0.229193369547526,
648,648,2639,2021-09-27 15:07:29.467,-0.315701166788737,
649,649,2643,2021-09-27 15:07:29.471,-0.0543848673502604,
650,650,2647,2021-09-27 15:07:29.475,-0.3854751586914063,
651,651,2651,2021-09-27 15:07:29.479,-0.0778420766194661,
652,652,2655,2021-09-27 15:07:29.483,-0.2341238657633463,
653,653,2659,2021-09-27 15:07:29.487,-0.3272056579589844,
654,654,2663,2021-09-27 15:07:29.491,-0.0700728098551432,
655,655,2667,2021-09-27 15:07:29.495,-0.4029560089111328,
656,656,2671,2021-09-27 15:07:29.499,-0.100552241007487,
657,657,2675,2021-09-27 15:07:29.503,-0.2548917134602865,
658,658,2679,2021-09-27 15:07:29.507,-0.3077824910481771,
659,659,2683,2021-09-27 15:07:29.511,-0.0267442067464192,
660,660,2687,2021-09-27 15:07:29.515,-0.3706836700439453,
661,661,2691,2021-09-27 15:07:29.519,-0.1026439666748047,
662,662,2695,2021-09-27 15:07:29.523,-0.2825323740641276,
663,663,2699,2021-09-27 15:07:29.527,-0.3455829620361328,
664,664,2703,2021-09-27 15:07:29.531,-0.0608094533284505,
665,665,2707,2021-09-27 15:07:29.535,-0.3714307149251302,
666,666,2711,2021-09-27 15:07:29.539,-0.0727621714274088,
667,667,2715,2021-09-27 15:07:29.543,-0.251007080078125,
668,668,2719,2021-09-27 15:07:29.547,-0.3358713785807292,
669,669,2723,2021-09-27 15:07:29.551,-0.0612576802571614,
670,670,2727,2021-09-27 15:07:29.555,-0.3794987996419271,
671,671,2731,2021-09-27 15:07:29.559,-0.0697739919026692,
672,672,2735,2021-09-27 15:07:29.563,-0.2235158284505208,
673,673,2739,2021-09-27 15:07:29.567,-0.3106212615966797,
674,674,2743,2021-09-27 15:07:29.571,-0.0620047251383463,
675,675,2747,2021-09-27 15:07:29.575,-0.4171498616536458,
676,676,2751,2021-09-27 15:07:29.579,-0.1205730438232422,
677,677,2755,2021-09-27 15:07:29.583,-0.279544194539388,
678,678,2759,2021-09-27 15:07:29.587,-0.3448359171549479,
679,679,2763,2021-09-27 15:07:29.591,-0.0606600443522135,
680,680,2767,2021-09-27 15:07:29.595,-0.3889115651448568,
681,681,2771,2021-09-27 15:07:29.599,-0.0920359293619791,
682,682,2775,2021-09-27 15:07:29.603,-0.272223154703776,
683,683,2779,2021-09-27 15:07:29.607,-0.3469276428222657,
684,684,2783,2021-09-27 15:07:29.611,-0.0484085083007812,
685,685,2787,2021-09-27 15:07:29.615,-0.3490193684895833,
686,686,2791,2021-09-27 15:07:29.619,-0.0336170196533203,
687,687,2795,2021-09-27 15:07:29.623,-0.208276112874349,
688,688,2799,2021-09-27 15:07:29.627,-0.3113683064778646,
689,689,2803,2021-09-27 15:07:29.631,-0.057223637898763,
690,690,2807,2021-09-27 15:07:29.635,-0.4010136922200521,
691,691,2811,2021-09-27 15:07:29.639,-0.1259517669677734,
692,692,2815,2021-09-27 15:07:29.643,-0.0537872314453125,
693,693,2819,2021-09-27 15:07:29.647,-0.3702354431152344,
694,694,2823,2021-09-27 15:07:29.651,-0.0537872314453125,
695,695,2827,2021-09-27 15:07:29.655,-0.380096435546875,
696,696,2831,2021-09-27 15:07:29.659,-0.244134267171224,
697,697,2835,2021-09-27 15:07:29.663,-0.1749579111735026,
698,698,2839,2021-09-27 15:07:29.667,-0.423126220703125,
699,699,2843,2021-09-27 15:07:29.671,-0.0531895955403645,
700,700,2847,2021-09-27 15:07:29.675,-0.3464794158935547,
701,701,2851,2021-09-27 15:07:29.679,-0.1910940806070963,
702,702,2855,2021-09-27 15:07:29.683,-0.1139990488688151,
703,703,2859,2021-09-27 15:07:29.687,-0.3736718495686849,
704,704,2863,2021-09-27 15:07:29.691,-0.0200208028157552,
705,705,2867,2021-09-27 15:07:29.695,-0.3430430094401042,
706,706,2871,2021-09-27 15:07:29.699,-0.2123101552327474,
707,707,2875,2021-09-27 15:07:29.703,-0.1440302530924479,
708,708,2879,2021-09-27 15:07:29.707,-0.3910032908121745,
709,709,2883,2021-09-27 15:07:29.711,-0.0342146555582682,
710,710,2887,2021-09-27 15:07:29.715,-0.3457323710123698,
711,711,2891,2021-09-27 15:07:29.719,-0.2057361602783203,
712,712,2895,2021-09-27 15:07:29.723,-0.1377550760904948,
713,713,2899,2021-09-27 15:07:29.727,-0.3642590840657552,
714,714,2903,2021-09-27 15:07:29.731,0.0227101643880208,
715,715,2907,2021-09-27 15:07:29.735,-0.2980709075927735,
716,716,2911,2021-09-27 15:07:29.739,-0.1915423075358073,
717,717,2915,2021-09-27 15:07:29.743,-0.1441796620686849,
718,718,2919,2021-09-27 15:07:29.747,-0.430746078491211,
719,719,2923,2021-09-27 15:07:29.751,-0.0818761189778645,
720,720,2927,2021-09-27 15:07:29.755,-0.3608226776123047,
721,721,2931,2021-09-27 15:07:29.759,-0.2031962076822916,
722,722,2935,2021-09-27 15:07:29.763,-0.136111577351888,
723,723,2939,2021-09-27 15:07:29.767,-0.394439697265625,
724,724,2943,2021-09-27 15:07:29.771,-0.0286865234375,
725,725,2947,2021-09-27 15:07:29.775,-0.3411006927490235,
726,726,2951,2021-09-27 15:07:29.779,-0.2145512898763021,
727,727,2955,2021-09-27 15:07:29.783,-0.143283208211263,
728,728,2959,2021-09-27 15:07:29.787,-0.3754647572835287,
729,729,2963,2021-09-27 15:07:29.791,0.0089645385742187,
730,730,2967,2021-09-27 15:07:29.795,-0.3056907653808594,
731,731,2971,2021-09-27 15:07:29.799,-0.1957257588704427,
732,732,2975,2021-09-27 15:07:29.803,-0.1547876993815104,
733,733,2979,2021-09-27 15:07:29.807,-0.4099782307942708,
734,734,2983,2021-09-27 15:07:29.811,-0.0469144185384114,
735,735,2987,2021-09-27 15:07:29.815,-0.3653049468994141,
736,736,2991,2021-09-27 15:07:29.819,-0.2185853322347005,
737,737,2995,2021-09-27 15:07:29.823,-0.1259517669677734,
738,738,2999,2021-09-27 15:07:29.827,-0.3651555379231771,
739,739,3003,2021-09-27 15:07:29.831,-0.0115044911702473,
740,740,3007,2021-09-27 15:07:29.835,-0.3339290618896485,
741,741,3011,2021-09-27 15:07:29.839,-0.2176888783772786,
742,742,3015,2021-09-27 15:07:29.843,-0.1473172505696614,
743,743,3019,2021-09-27 15:07:29.847,-0.3896586100260417,
744,744,3023,2021-09-27 15:07:29.851,-0.0291347503662109,
745,745,3027,2021-09-27 15:07:29.855,-0.3460311889648438,
746,746,3031,2021-09-27 15:07:29.859,-0.2067820231119791,
747,747,3035,2021-09-27 15:07:29.863,-0.1190789540608724,
748,748,3039,2021-09-27 15:07:29.867,-0.3676954905192057,
749,749,3043,2021-09-27 15:07:29.871,-0.0110562642415364,
750,750,3047,2021-09-27 15:07:29.875,-0.3409512837727865,
751,751,3051,2021-09-27 15:07:29.879,-0.2197806040445963,
752,752,3055,2021-09-27 15:07:29.883,-0.1523971557617187,
753,753,3059,2021-09-27 15:07:29.887,-0.4123687744140625,
754,754,3063,2021-09-27 15:07:29.891,-0.0303300221761067,
755,755,3067,2021-09-27 15:07:29.895,-0.3170458475748698,
756,756,3071,2021-09-27 15:07:29.899,-0.1906458536783854,
757,757,3075,2021-09-27 15:07:29.903,-0.1459725697835286,
758,758,3079,2021-09-27 15:07:29.907,-0.4031054178873698,
759,759,3083,2021-09-27 15:07:29.911,-0.0340652465820312,
760,760,3087,2021-09-27 15:07:29.915,-0.3448359171549479,
761,761,3091,2021-09-27 15:07:29.919,-0.2084255218505859,
762,762,3095,2021-09-27 15:07:29.923,-0.1310316721598307,
763,763,3099,2021-09-27 15:07:29.927,-0.3811422983805339,
764,764,3103,2021-09-27 15:07:29.931,-0.0222619374593098,
765,765,3107,2021-09-27 15:07:29.935,-0.3384113311767578,
766,766,3111,2021-09-27 15:07:29.939,-0.2048397064208984,
767,767,3115,2021-09-27 15:07:29.943,-0.1286411285400391,
768,768,3119,2021-09-27 15:07:29.947,-0.3763612111409505,
769,769,3123,2021-09-27 15:07:29.951,-0.028537114461263,
770,770,3127,2021-09-27 15:07:29.955,-0.3579839070638021,
771,771,3131,2021-09-27 15:07:29.959,-0.2357673645019531,
772,772,3135,2021-09-27 15:07:29.963,-0.1628557840983073,
773,773,3139,2021-09-27 15:07:29.967,-0.408633550008138,
774,774,3143,2021-09-27 15:07:29.971,-0.0375016530354817,
775,775,3147,2021-09-27 15:07:29.975,-0.3351243336995443,
776,776,3151,2021-09-27 15:07:29.979,-0.1969210306803385,
777,777,3155,2021-09-27 15:07:29.983,-0.1262505849202474,
778,778,3159,2021-09-27 15:07:29.987,-0.3768094380696615,
779,779,3163,2021-09-27 15:07:29.991,-0.0248018900553385,
780,780,3167,2021-09-27 15:07:29.995,-0.3536510467529297,
781,781,3171,2021-09-27 15:07:29.999,-0.2372614542643229,
782,782,3175,2021-09-27 15:07:30.003,-0.1570288340250651,
783,783,3179,2021-09-27 15:07:30.007,-0.4040018717447917,
784,784,3183,2021-09-27 15:07:30.011,-0.0179290771484375,
785,785,3187,2021-09-27 15:07:30.015,-0.3025531768798828,
786,786,3191,2021-09-27 15:07:30.019,-0.1628557840983073,
787,787,3195,2021-09-27 15:07:30.023,-0.1180330912272135,
788,788,3199,2021-09-27 15:07:30.027,-0.3838316599527995,
789,789,3203,2021-09-27 15:07:30.031,0.0034364064534505,
790,790,3207,2021-09-27 15:07:30.035,-0.2472718556722005,
791,791,3211,2021-09-27 15:07:30.039,-0.0231583913167317,
792,792,3215,2021-09-27 15:07:30.043,0.1695791880289713,
793,793,3219,2021-09-27 15:07:30.047,0.0173314412434895,
794,794,3223,2021-09-27 15:07:30.051,0.3638108571370443,
795,795,3227,2021-09-27 15:07:30.055,-0.0132973988850911,
796,796,3231,2021-09-27 15:07:30.059,-0.056775410970052,
797,797,3235,2021-09-27 15:07:30.063,-0.3437900543212891,
798,798,3239,2021-09-27 15:07:30.067,-0.9935696919759116,
799,799,3243,2021-09-27 15:07:30.071,-0.9030278523763022,
800,800,3247,2021-09-27 15:07:30.075,-1.1991564432779949,
801,801,3251,2021-09-27 15:07:30.079,-0.9278297424316408,
802,802,3255,2021-09-27 15:07:30.083,-0.5563990275065105,
803,803,3259,2021-09-27 15:07:30.087,-0.5215867360432943,
804,804,3263,2021-09-27 15:07:30.091,0.0400416056315104,
805,805,3267,2021-09-27 15:07:30.095,-0.1395479838053385,
806,806,3271,2021-09-27 15:07:30.099,0.0676822662353515,
807,807,3275,2021-09-27 15:07:30.103,0.1785437266031901,
808,808,3279,2021-09-27 15:07:30.107,-0.092932383219401,
809,809,3283,2021-09-27 15:07:30.111,0.229641596476237,
810,810,3287,2021-09-27 15:07:30.115,-0.0987593332926432,
811,811,3291,2021-09-27 15:07:30.119,-0.0174808502197265,
812,812,3295,2021-09-27 15:07:30.123,0.0074704488118489,
813,813,3299,2021-09-27 15:07:30.127,-0.2997144063313802,
814,814,3303,2021-09-27 15:07:30.131,0.0173314412434895,
815,815,3307,2021-09-27 15:07:30.135,-0.3207810719807943,
816,816,3311,2021-09-27 15:07:30.139,-0.1955763498942057,
817,817,3315,2021-09-27 15:07:30.143,-0.1083215077718099,
818,818,3319,2021-09-27 15:07:30.147,-0.3569380442301432,
819,819,3323,2021-09-27 15:07:30.151,-0.0031375885009765,
820,820,3327,2021-09-27 15:07:30.155,-0.322424570719401,
821,821,3331,2021-09-27 15:07:30.159,-0.2197806040445963,
822,822,3335,2021-09-27 15:07:30.163,-0.1642004648844401,
823,823,3339,2021-09-27 15:07:30.167,-0.4217815399169922,
824,824,3343,2021-09-27 15:07:30.171,-0.0627517700195312,
825,825,3347,2021-09-27 15:07:30.175,-0.3771082560221354,
826,826,3351,2021-09-27 15:07:30.179,-0.2486165364583333,
827,827,3355,2021-09-27 15:07:30.183,-0.1686827341715495,
828,828,3359,2021-09-27 15:07:30.187,-0.4181957244873047,
829,829,3363,2021-09-27 15:07:30.191,-0.0484085083007812,
830,830,3367,2021-09-27 15:07:30.195,-0.343939463297526,
831,831,3371,2021-09-27 15:07:30.199,-0.2241134643554687,
832,832,3375,2021-09-27 15:07:30.203,-0.1482137044270833,
833,833,3379,2021-09-27 15:07:30.207,-0.38726806640625,
834,834,3383,2021-09-27 15:07:30.211,-0.0119527180989583,
835,835,3387,2021-09-27 15:07:30.215,-0.3285503387451172,
836,836,3391,2021-09-27 15:07:30.219,-0.2070808410644531,
837,837,3395,2021-09-27 15:07:30.223,-0.1343186696370442,
838,838,3399,2021-09-27 15:07:30.227,-0.4023583730061849,
839,839,3403,2021-09-27 15:07:30.231,-0.0392945607503255,
840,840,3407,2021-09-27 15:07:30.235,-0.3355725606282552,
841,841,3411,2021-09-27 15:07:30.239,-0.2106666564941406,
842,842,3415,2021-09-27 15:07:30.243,-0.1482137044270833,
843,843,3419,2021-09-27 15:07:30.247,-0.4034042358398438,
844,844,3423,2021-09-27 15:07:30.251,-0.0404898325602213,
845,845,3427,2021-09-27 15:07:30.255,-0.3476746877034505,
846,846,3431,2021-09-27 15:07:30.259,-0.2142524719238281,
847,847,3435,2021-09-27 15:07:30.263,-0.1235612233479817,
848,848,3439,2021-09-27 15:07:30.267,-0.3552945454915365,
849,849,3443,2021-09-27 15:07:30.271,0.0053787231445312,
850,850,3447,2021-09-27 15:07:30.275,-0.3112188975016276,
851,851,3451,2021-09-27 15:07:30.279,-0.2027479807535807,
852,852,3455,2021-09-27 15:07:30.283,-0.1568794250488281,
853,853,3459,2021-09-27 15:07:30.287,-0.3978761037190755,
854,854,3463,2021-09-27 15:07:30.291,-0.0201702117919921,
855,855,3467,2021-09-27 15:07:30.295,-0.3331820170084635,
856,856,3471,2021-09-27 15:07:30.299,-0.2236652374267578,
857,857,3475,2021-09-27 15:07:30.303,-0.1517995198567708,
858,858,3479,2021-09-27 15:07:30.307,-0.3884633382161458,
859,859,3483,2021-09-27 15:07:30.311,-0.0219631195068359,
860,860,3487,2021-09-27 15:07:30.315,-0.3304926554361979,
861,861,3491,2021-09-27 15:07:30.319,-0.2129077911376953,
862,862,3495,2021-09-27 15:07:30.323,-0.1525465647379557,
863,863,3499,2021-09-27 15:07:30.327,-0.4132652282714844,
864,864,3503,2021-09-27 15:07:30.331,-0.0473626454671224,
865,865,3507,2021-09-27 15:07:30.335,-0.3396066029866537,
866,866,3511,2021-09-27 15:07:30.339,-0.2190335591634115,
867,867,3515,2021-09-27 15:07:30.343,-0.1706250508626302,
868,868,3519,2021-09-27 15:07:30.347,-0.4329872131347657,
869,869,3523,2021-09-27 15:07:30.351,-0.078290303548177,
870,870,3527,2021-09-27 15:07:30.355,-0.366201400756836,
871,871,3531,2021-09-27 15:07:30.359,-0.2028973897298177,
872,872,3535,2021-09-27 15:07:30.363,-0.1114590962727864,
873,873,3539,2021-09-27 15:07:30.367,-0.3682931264241537,
874,874,3543,2021-09-27 15:07:30.371,-0.0262959798177083,
875,875,3547,2021-09-27 15:07:30.375,-0.3554439544677735,
876,876,3551,2021-09-27 15:07:30.379,-0.2254581451416016,
877,877,3555,2021-09-27 15:07:30.383,-0.1304340362548828,
878,878,3559,2021-09-27 15:07:30.387,-0.3551451365152995,
879,879,3563,2021-09-27 15:07:30.391,0.0176302591959635,
880,880,3567,2021-09-27 15:07:30.395,-0.3179423014322917,
881,881,3571,2021-09-27 15:07:30.399,-0.2269522349039713,
882,882,3575,2021-09-27 15:07:30.403,-0.1555347442626953,
883,883,3579,2021-09-27 15:07:30.407,-0.3856245676676433,
884,884,3583,2021-09-27 15:07:30.411,-0.0124009450276692,
885,885,3587,2021-09-27 15:07:30.415,-0.3070354461669922,
886,886,3591,2021-09-27 15:07:30.419,-0.1773484547932942,
887,887,3595,2021-09-27 15:07:30.423,-0.1181825002034505,
888,888,3599,2021-09-27 15:07:30.427,-0.3832340240478516,
889,889,3603,2021-09-27 15:07:30.431,-0.0383981068929036,
890,890,3607,2021-09-27 15:07:30.435,-0.365753173828125,
891,891,3611,2021-09-27 15:07:30.439,-0.2212746938069661,
892,892,3615,2021-09-27 15:07:30.443,-0.1159413655598958,
893,893,3619,2021-09-27 15:07:30.447,-0.3526051839192708,
894,894,3623,2021-09-27 15:07:30.451,-0.0043328603108723,
895,895,3627,2021-09-27 15:07:30.455,-0.3337796529134115,
896,896,3631,2021-09-27 15:07:30.459,-0.2112642923990885,
897,897,3635,2021-09-27 15:07:30.463,-0.1393985748291016,
898,898,3639,2021-09-27 15:07:30.467,-0.3951867421468099,
899,899,3643,2021-09-27 15:07:30.471,-0.0334676106770833,
900,900,3647,2021-09-27 15:07:30.475,-0.3475252787272135,
901,901,3651,2021-09-27 15:07:30.479,-0.2235158284505208,
902,902,3655,2021-09-27 15:07:30.483,-0.164648691813151,
903,903,3659,2021-09-27 15:07:30.487,-0.409231185913086,
904,904,3663,2021-09-27 15:07:30.491,-0.0306288401285807,Start
905,905,3667,2021-09-27 15:07:30.495,-0.3206316630045573,
906,906,3671,2021-09-27 15:07:30.499,-0.1961739857991536,
907,907,3675,2021-09-27 15:07:30.503,-0.1240094502766927,
908,908,3679,2021-09-27 15:07:30.507,-0.3815905253092448,
909,909,3683,2021-09-27 15:07:30.511,-0.0252501169840494,
910,910,3687,2021-09-27 15:07:30.515,-0.3390089670817057,
911,911,3691,2021-09-27 15:07:30.519,-0.2271016438802083,
912,912,3695,2021-09-27 15:07:30.523,-0.157477060953776,
913,913,3699,2021-09-27 15:07:30.527,-0.3986231486002605,
914,914,3703,2021-09-27 15:07:30.531,-0.0249512990315755,
915,915,3707,2021-09-27 15:07:30.535,-0.3245162963867188,
916,916,3711,2021-09-27 15:07:30.539,-0.2067820231119791,
917,917,3715,2021-09-27 15:07:30.543,-0.1525465647379557,
918,918,3719,2021-09-27 15:07:30.547,-0.4023583730061849,
919,919,3723,2021-09-27 15:07:30.551,-0.0268936157226562,
920,920,3727,2021-09-27 15:07:30.555,-0.3257115681966146,
921,921,3731,2021-09-27 15:07:30.559,-0.2052879333496094,
922,922,3735,2021-09-27 15:07:30.563,-0.1411914825439453,
923,923,3739,2021-09-27 15:07:30.567,-0.3865210215250652,
924,924,3743,2021-09-27 15:07:30.571,-0.0351111094156901,
925,925,3747,2021-09-27 15:07:30.575,-0.3364690144856771,
926,926,3751,2021-09-27 15:07:30.579,-0.1954269409179687,
927,927,3755,2021-09-27 15:07:30.583,-0.1356633504231771,
928,928,3759,2021-09-27 15:07:30.587,-0.3853257497151693,
929,929,3763,2021-09-27 15:07:30.591,-0.0333182017008463,
930,930,3767,2021-09-27 15:07:30.595,-0.3411006927490235,
931,931,3771,2021-09-27 15:07:30.599,-0.2117125193277995,
932,932,3775,2021-09-27 15:07:30.603,-0.1446278889973958,
933,933,3779,2021-09-27 15:07:30.607,-0.3901068369547527,
934,934,3783,2021-09-27 15:07:30.611,-0.0345134735107421,
935,935,3787,2021-09-27 15:07:30.615,-0.3413995107014974,
936,936,3791,2021-09-27 15:07:30.619,-0.2036444346110026,
937,937,3795,2021-09-27 15:07:30.623,-0.1150449117024739,
938,938,3799,2021-09-27 15:07:30.627,-0.3774070739746094,
939,939,3803,2021-09-27 15:07:30.631,-0.0194231669108072,
940,940,3807,2021-09-27 15:07:30.635,-0.322872797648112,
941,941,3811,2021-09-27 15:07:30.639,-0.2408472696940104,
942,942,3815,2021-09-27 15:07:30.643,0.0440756479899088,
943,943,3819,2021-09-27 15:07:30.647,-0.3889115651448568,
944,944,3823,2021-09-27 15:07:30.651,-0.1535924275716146,
945,945,3827,2021-09-27 15:07:30.655,-0.3121153513590495,
946,946,3831,2021-09-27 15:07:30.659,-0.3669484456380208,
947,947,3835,2021-09-27 15:07:30.663,-0.071566899617513,
948,948,3839,2021-09-27 15:07:30.667,-0.4051971435546875,
949,949,3843,2021-09-27 15:07:30.671,-0.107425053914388,
950,950,3847,2021-09-27 15:07:30.675,-0.258029301961263,
951,951,3851,2021-09-27 15:07:30.679,-0.3276538848876953,
952,952,3855,2021-09-27 15:07:30.683,-0.0467650095621744,
953,953,3859,2021-09-27 15:07:30.687,-0.3763612111409505,
954,954,3863,2021-09-27 15:07:30.691,-0.0747044881184895,
955,955,3867,2021-09-27 15:07:30.695,-0.2285957336425781,
956,956,3871,2021-09-27 15:07:30.699,-0.3097248077392578,
957,957,3875,2021-09-27 15:07:30.703,-0.0268936157226562,
958,958,3879,2021-09-27 15:07:30.707,-0.3506628672281901,
959,959,3883,2021-09-27 15:07:30.711,-0.0603612263997395,
960,960,3887,2021-09-27 15:07:30.715,-0.2409966786702474,
961,961,3891,2021-09-27 15:07:30.719,-0.3334808349609375,
962,962,3895,2021-09-27 15:07:30.723,-0.0779914855957031,
963,963,3899,2021-09-27 15:07:30.727,-0.4190921783447266,
964,964,3903,2021-09-27 15:07:30.731,-0.1132520039876302,
965,965,3907,2021-09-27 15:07:30.735,-0.2659479777018229,
966,966,3911,2021-09-27 15:07:30.739,-0.3466288248697917,
967,967,3915,2021-09-27 15:07:30.743,-0.04302978515625,
968,968,3919,2021-09-27 15:07:30.747,-0.3543980916341146,
969,969,3923,2021-09-27 15:07:30.751,-0.0629011789957682,
970,970,3927,2021-09-27 15:07:30.755,-0.2519035339355469,
971,971,3931,2021-09-27 15:07:30.759,-0.3503640492757162,
972,972,3935,2021-09-27 15:07:30.763,-0.0721645355224609,
973,973,3939,2021-09-27 15:07:30.767,-0.3839810689290365,
974,974,3943,2021-09-27 15:07:30.771,-0.0651423136393229,
975,975,3947,2021-09-27 15:07:30.775,-0.2205276489257812,
976,976,3951,2021-09-27 15:07:30.779,-0.308081309000651,
977,977,3955,2021-09-27 15:07:30.783,-0.049603780110677,
978,978,3959,2021-09-27 15:07:30.787,-0.3917503356933594,
979,979,3963,2021-09-27 15:07:30.791,-0.1032416025797526,
980,980,3967,2021-09-27 15:07:30.795,-0.2638562520345052,
981,981,3971,2021-09-27 15:07:30.799,-0.3263092041015625,
982,982,3975,2021-09-27 15:07:30.803,-0.0518449147542317,
983,983,3979,2021-09-27 15:07:30.807,-0.3892103830973308,
984,984,3983,2021-09-27 15:07:30.811,-0.0866572062174479,
985,985,3987,2021-09-27 15:07:30.815,-0.2493635813395182,
986,986,3991,2021-09-27 15:07:30.819,-0.3348255157470703,
987,987,3995,2021-09-27 15:07:30.823,-0.0463167826334635,
988,988,3999,2021-09-27 15:07:30.827,-0.3748671213785807,
989,989,4003,2021-09-27 15:07:30.831,-0.0815773010253906,
990,990,4007,2021-09-27 15:07:30.835,-0.2444330851236979,
991,991,4011,2021-09-27 15:07:30.839,-0.3318373362223307,
992,992,4015,2021-09-27 15:07:30.843,-0.0675328572591145,
993,993,4019,2021-09-27 15:07:30.847,-0.4147593180338542,
994,994,4023,2021-09-27 15:07:30.851,-0.1045862833658854,
995,995,4027,2021-09-27 15:07:30.855,-0.2306874593098958,
996,996,4031,2021-09-27 15:07:30.859,-0.2826817830403646,
997,997,4035,2021-09-27 15:07:30.863,-0.0020917256673177,
998,998,4039,2021-09-27 15:07:30.867,-0.3611214955647787,
999,999,4043,2021-09-27 15:07:30.871,-0.1047356923421224,
1000,1000,4047,2021-09-27 15:07:30.875,-0.2903016408284505,
1001,1001,4051,2021-09-27 15:07:30.879,-0.3572368621826172,
1002,1002,4055,2021-09-27 15:07:30.883,-0.056924819946289,
1003,1003,4059,2021-09-27 15:07:30.887,-0.3836822509765625,
1004,1004,4063,2021-09-27 15:07:30.891,-0.0986099243164062,
1005,1005,4067,2021-09-27 15:07:30.895,-0.2852217356363932,
1006,1006,4071,2021-09-27 15:07:30.899,-0.3775564829508464,
1007,1007,4075,2021-09-27 15:07:30.903,-0.0959205627441406,
1008,1008,4079,2021-09-27 15:07:30.907,-0.402059555053711,
1009,1009,4083,2021-09-27 15:07:30.911,-0.064395268758138,
1010,1010,4087,2021-09-27 15:07:30.915,-0.2060349782307943,
1011,1011,4091,2021-09-27 15:07:30.919,-0.2910486857096354,
1012,1012,4095,2021-09-27 15:07:30.923,-0.0294335683186848,
1013,1013,4099,2021-09-27 15:07:30.927,-0.3860727945963542,
1014,1014,4103,2021-09-27 15:07:30.931,-0.107574462890625,
1015,1015,4107,2021-09-27 15:07:30.935,-0.2565352121988932,
1016,1016,4111,2021-09-27 15:07:30.939,-0.3203328450520833,
1017,1017,4115,2021-09-27 15:07:30.943,-0.0510978698730468,
1018,1018,4119,2021-09-27 15:07:30.947,-0.3959337870279948,
1019,1019,4123,2021-09-27 15:07:30.951,-0.1010004679361979,
1020,1020,4127,2021-09-27 15:07:30.955,-0.2448813120524088,
1021,1021,4131,2021-09-27 15:07:30.959,-0.3091271718343099,
1022,1022,4135,2021-09-27 15:07:30.963,-0.0103092193603515,
1023,1023,4139,2021-09-27 15:07:30.967,-0.3128623962402344,
1024,1024,4143,2021-09-27 15:07:30.971,0.0349617004394531,
1025,1025,4147,2021-09-27 15:07:30.975,-0.0564765930175781,
1026,1026,4151,2021-09-27 15:07:30.979,-0.0324217478434244,
1027,1027,4155,2021-09-27 15:07:30.983,0.322723388671875,
1028,1028,4159,2021-09-27 15:07:30.987,-0.0008964538574218,
1029,1029,4163,2021-09-27 15:07:30.991,0.2229181925455729,
1030,1030,4167,2021-09-27 15:07:30.995,-0.1259517669677734,
1031,1031,4171,2021-09-27 15:07:30.999,-0.5495262145996095,
1032,1032,4175,2021-09-27 15:07:31.003,-0.6690533955891927,
1033,1033,4179,2021-09-27 15:07:31.007,-1.242485046386719,
1034,1034,4183,2021-09-27 15:07:31.011,-0.9925238291422528,
1035,1035,4187,2021-09-27 15:07:31.015,-0.9526316324869792,
1036,1036,4191,2021-09-27 15:07:31.019,-0.7373332977294923,
1037,1037,4195,2021-09-27 15:07:31.023,-0.1670392354329427,
1038,1038,4199,2021-09-27 15:07:31.027,-0.272223154703776,
1039,1039,4203,2021-09-27 15:07:31.031,0.1479148864746094,
1040,1040,4207,2021-09-27 15:07:31.035,0.0536378224690755,
1041,1041,4211,2021-09-27 15:07:31.039,-0.021216074625651,
1042,1042,4215,2021-09-27 15:07:31.043,0.2124595642089844,
1043,1043,4219,2021-09-27 15:07:31.047,-0.1537418365478516,
1044,1044,4223,2021-09-27 15:07:31.051,0.1051839192708333,
1045,1045,4227,2021-09-27 15:07:31.055,-0.1015981038411458,
1046,1046,4231,2021-09-27 15:07:31.059,-0.2008056640625,
1047,1047,4235,2021-09-27 15:07:31.063,0.0563271840413411,
1048,1048,4239,2021-09-27 15:07:31.067,-0.3171952565511068,
1049,1049,4243,2021-09-27 15:07:31.071,-0.0488567352294921,
1050,1050,4247,2021-09-27 15:07:31.075,-0.2176888783772786,
1051,1051,4251,2021-09-27 15:07:31.079,-0.3031508127848307,
1052,1052,4255,2021-09-27 15:07:31.083,-0.0363063812255859,
1053,1053,4259,2021-09-27 15:07:31.087,-0.3700860341389974,
1054,1054,4263,2021-09-27 15:07:31.091,-0.0766468048095703,
1055,1055,4267,2021-09-27 15:07:31.095,-0.2484671274820963,
1056,1056,4271,2021-09-27 15:07:31.099,-0.3457323710123698,
1057,1057,4275,2021-09-27 15:07:31.103,-0.0732103983561198,
1058,1058,4279,2021-09-27 15:07:31.107,-0.416552225748698,
1059,1059,4283,2021-09-27 15:07:31.111,-0.1165390014648437,
1060,1060,4287,2021-09-27 15:07:31.115,-0.2705796559651693,
1061,1061,4291,2021-09-27 15:07:31.119,-0.337514877319336,
1062,1062,4295,2021-09-27 15:07:31.123,-0.0516955057779947,
1063,1063,4299,2021-09-27 15:07:31.127,-0.3742694854736328,
1064,1064,4303,2021-09-27 15:07:31.131,-0.0761985778808593,
1065,1065,4307,2021-09-27 15:07:31.135,-0.2423413594563802,
1066,1066,4311,2021-09-27 15:07:31.139,-0.3393077850341797,
1067,1067,4315,2021-09-27 15:07:31.143,-0.0896453857421875,
1068,1068,4319,2021-09-27 15:07:31.147,-0.4337342580159505,
1069,1069,4323,2021-09-27 15:07:31.151,-0.1328245798746745,
1070,1070,4327,2021-09-27 15:07:31.155,-0.279843012491862,
1071,1071,4331,2021-09-27 15:07:31.159,-0.3387101491292318,
1072,1072,4335,2021-09-27 15:07:31.163,-0.0533390045166015,
1073,1073,4339,2021-09-27 15:07:31.167,-0.3926467895507813,
1074,1074,4343,2021-09-27 15:07:31.171,-0.0891971588134765,
1075,1075,4347,2021-09-27 15:07:31.175,-0.2468236287434896,
1076,1076,4351,2021-09-27 15:07:31.179,-0.329745610555013,
1077,1077,4355,2021-09-27 15:07:31.183,-0.0389957427978515,
1078,1078,4359,2021-09-27 15:07:31.187,-0.3665002187093099,
1079,1079,4363,2021-09-27 15:07:31.191,-0.071268081665039,
1080,1080,4367,2021-09-27 15:07:31.195,-0.2453295389811198,
1081,1081,4371,2021-09-27 15:07:31.199,-0.322723388671875,
1082,1082,4375,2021-09-27 15:07:31.203,-0.0404898325602213,
1083,1083,4379,2021-09-27 15:07:31.207,-0.3702354431152344,
1084,1084,4383,2021-09-27 15:07:31.211,-0.0742562611897786,
1085,1085,4387,2021-09-27 15:07:31.215,-0.2504094441731771,
1086,1086,4391,2021-09-27 15:07:31.219,-0.337514877319336,
1087,1087,4395,2021-09-27 15:07:31.223,-0.064245859781901,
1088,1088,4399,2021-09-27 15:07:31.227,-0.3936926523844402,
1089,1089,4403,2021-09-27 15:07:31.231,-0.0905418395996093,
1090,1090,4407,2021-09-27 15:07:31.235,-0.2403990427652995,
1091,1091,4411,2021-09-27 15:07:31.239,-0.3101730346679688,
1092,1092,4415,2021-09-27 15:07:31.243,-0.0439262390136718,
1093,1093,4419,2021-09-27 15:07:31.247,-0.3904056549072266,
1094,1094,4423,2021-09-27 15:07:31.251,-0.0990581512451172,
1095,1095,4427,2021-09-27 15:07:31.255,-0.2625115712483724,
1096,1096,4431,2021-09-27 15:07:31.259,-0.3482723236083985,
1097,1097,4435,2021-09-27 15:07:31.263,-0.0761985778808593,
1098,1098,4439,2021-09-27 15:07:31.267,-0.4062430063883464,
1099,1099,4443,2021-09-27 15:07:31.271,-0.1039886474609375,
1100,1100,4447,2021-09-27 15:07:31.275,-0.2522023518880208,
1101,1101,4451,2021-09-27 15:07:31.279,-0.3182411193847657,
1102,1102,4455,2021-09-27 15:07:31.283,-0.0537872314453125,
1103,1103,4459,2021-09-27 15:07:31.287,-0.4195404052734375,
1104,1104,4463,2021-09-27 15:07:31.291,-0.1329739888509114,
1105,1105,4467,2021-09-27 15:07:31.295,-0.2819347381591797,
1106,1106,4471,2021-09-27 15:07:31.299,-0.3430430094401042,
1107,1107,4475,2021-09-27 15:07:31.303,-0.0493049621582031,
1108,1108,4479,2021-09-27 15:07:31.307,-0.3771082560221354,
1109,1109,4483,2021-09-27 15:07:31.311,-0.0756009419759114,
1110,1110,4487,2021-09-27 15:07:31.315,-0.2432378133138021,
1111,1111,4491,2021-09-27 15:07:31.319,-0.3222751617431641,
1112,1112,4495,2021-09-27 15:07:31.323,-0.0325711568196614,
1113,1113,4499,2021-09-27 15:07:31.327,-0.3635120391845703,
1114,1114,4503,2021-09-27 15:07:31.331,-0.0779914855957031,
1115,1115,4507,2021-09-27 15:07:31.335,-0.2595233917236328,
1116,1116,4511,2021-09-27 15:07:31.339,-0.3460311889648438,
1117,1117,4515,2021-09-27 15:07:31.343,-0.056924819946289,
1118,1118,4519,2021-09-27 15:07:31.347,-0.3666496276855469,
1119,1119,4523,2021-09-27 15:07:31.351,-0.0599129994710286,
1120,1120,4527,2021-09-27 15:07:31.355,-0.2176888783772786,
1121,1121,4531,2021-09-27 15:07:31.359,-0.3058401743570964,
1122,1122,4535,2021-09-27 15:07:31.363,-0.042730967203776,
1123,1123,4539,2021-09-27 15:07:31.367,-0.3844292958577474,
1124,1124,4543,2021-09-27 15:07:31.371,-0.0902430216471354,
1125,1125,4547,2021-09-27 15:07:31.375,-0.2451801300048828,
1126,1126,4551,2021-09-27 15:07:31.379,-0.315402348836263,
1127,1127,4555,2021-09-27 15:07:31.383,-0.0443744659423828,
1128,1128,4559,2021-09-27 15:07:31.387,-0.3741200764973958,
1129,1129,4563,2021-09-27 15:07:31.391,-0.0657399495442708,
1130,1130,4567,2021-09-27 15:07:31.395,-0.2314345041910807,
1131,1131,4571,2021-09-27 15:07:31.399,-0.323022206624349,
1132,1132,4575,2021-09-27 15:07:31.403,-0.0576718648274739,
1133,1133,4579,2021-09-27 15:07:31.407,-0.3959337870279948,
1134,1134,4583,2021-09-27 15:07:31.411,-0.1036898295084635,
1135,1135,4587,2021-09-27 15:07:31.415,-0.2762571970621745,
1136,1136,4591,2021-09-27 15:07:31.419,-0.3635120391845703,
1137,1137,4595,2021-09-27 15:07:31.423,-0.0806808471679687,
1138,1138,4599,2021-09-27 15:07:31.427,-0.3824869791666667,
1139,1139,4603,2021-09-27 15:07:31.431,-0.0558789571126302,
1140,1140,4607,2021-09-27 15:07:31.435,-0.2181371053059896,
1141,1141,4611,2021-09-27 15:07:31.439,-0.3119659423828125,
1142,1142,4615,2021-09-27 15:07:31.443,-0.049902598063151,
1143,1143,4619,2021-09-27 15:07:31.447,-0.3939914703369141,
1144,1144,4623,2021-09-27 15:07:31.451,-0.092633565266927,
1145,1145,4627,2021-09-27 15:07:31.455,-0.236365000406901,
1146,1146,4631,2021-09-27 15:07:31.459,-0.3171952565511068,
1147,1147,4635,2021-09-27 15:07:31.463,-0.0524425506591796,
1148,1148,4639,2021-09-27 15:07:31.467,-0.401760737101237,
1149,1149,4643,2021-09-27 15:07:31.471,-0.1047356923421224,
1150,1150,4647,2021-09-27 15:07:31.475,-0.2593739827473958,
1151,1151,4651,2021-09-27 15:07:31.479,-0.3394571940104167,
1152,1152,4655,2021-09-27 15:07:31.483,-0.0676822662353515,
1153,1153,4659,2021-09-27 15:07:31.487,-0.4032548268636068,
1154,1154,4663,2021-09-27 15:07:31.491,-0.0935300191243489,
1155,1155,4667,2021-09-27 15:07:31.495,-0.244134267171224,
1156,1156,4671,2021-09-27 15:07:31.499,-0.3272056579589844,
1157,1157,4675,2021-09-27 15:07:31.503,-0.0631999969482422,
1158,1158,4679,2021-09-27 15:07:31.507,-0.3859233856201172,
1159,1159,4683,2021-09-27 15:07:31.511,-0.0564765930175781,
1160,1160,4687,2021-09-27 15:07:31.515,-0.2133560180664062,
1161,1161,4691,2021-09-27 15:07:31.519,-0.3161493937174479,
1162,1162,4695,2021-09-27 15:07:31.523,-0.0673834482828776,
1163,1163,4699,2021-09-27 15:07:31.527,-0.3972784678141277,
1164,1164,4703,2021-09-27 15:07:31.531,-0.0808302561442057,
1165,1165,4707,2021-09-27 15:07:31.535,-0.2445824940999349,
1166,1166,4711,2021-09-27 15:07:31.539,-0.3243668874104818,
1167,1167,4715,2021-09-27 15:07:31.543,-0.0539366404215494,
1168,1168,4719,2021-09-27 15:07:31.547,-0.3995196024576823,
1169,1169,4723,2021-09-27 15:07:31.551,-0.1057815551757812,
1170,1170,4727,2021-09-27 15:07:31.555,-0.2680397033691407,
1171,1171,4731,2021-09-27 15:07:31.559,-0.3355725606282552,
1172,1172,4735,2021-09-27 15:07:31.563,-0.0346628824869791,
1173,1173,4739,2021-09-27 15:07:31.567,-0.3461805979410807,
1174,1174,4743,2021-09-27 15:07:31.571,-0.0672340393066406,
1175,1175,4747,2021-09-27 15:07:31.575,-0.2532482147216797,
1176,1176,4751,2021-09-27 15:07:31.579,-0.3406524658203125,
1177,1177,4755,2021-09-27 15:07:31.583,-0.0631999969482422,
1178,1178,4759,2021-09-27 15:07:31.587,-0.3857739766438802,
1179,1179,4763,2021-09-27 15:07:31.591,-0.0827725728352864,
1180,1180,4767,2021-09-27 15:07:31.595,-0.2350203196207682,
1181,1181,4771,2021-09-27 15:07:31.599,-0.3210798899332682,
1182,1182,4775,2021-09-27 15:07:31.603,-0.0658893585205078,
1183,1183,4779,2021-09-27 15:07:31.607,-0.3957843780517578,
1184,1184,4783,2021-09-27 15:07:31.611,-0.0903924306233724,
1185,1185,4787,2021-09-27 15:07:31.615,-0.2456283569335937,
1186,1186,4791,2021-09-27 15:07:31.619,-0.329596201578776,
1187,1187,4795,2021-09-27 15:07:31.623,-0.0494543711344401,
1188,1188,4799,2021-09-27 15:07:31.627,-0.3808434804280599,
1189,1189,4803,2021-09-27 15:07:31.631,-0.085611343383789,
1190,1190,4807,2021-09-27 15:07:31.635,-0.2453295389811198,
1191,1191,4811,2021-09-27 15:07:31.639,-0.3500652313232422,
1192,1192,4815,2021-09-27 15:07:31.643,0.0751527150472005,
1193,1193,4819,2021-09-27 15:07:31.647,-0.3062884012858073,
1194,1194,4823,2021-09-27 15:07:31.651,-0.243984858194987,
1195,1195,4827,2021-09-27 15:07:31.655,-0.2021503448486328,
1196,1196,4831,2021-09-27 15:07:31.659,-0.4302978515625,
1197,1197,4835,2021-09-27 15:07:31.663,-0.042581558227539,
1198,1198,4839,2021-09-27 15:07:31.667,-0.3476746877034505,
1199,1199,4843,2021-09-27 15:07:31.671,-0.2381579081217448,
1200,1200,4847,2021-09-27 15:07:31.675,-0.1697285970052083,
1201,1201,4851,2021-09-27 15:07:31.679,-0.3823375701904297,
1202,1202,4855,2021-09-27 15:07:31.683,-0.0044822692871093,
1203,1203,4859,2021-09-27 15:07:31.687,-0.3140576680501302,
1204,1204,4863,2021-09-27 15:07:31.691,-0.1981163024902344,
1205,1205,4867,2021-09-27 15:07:31.695,-0.1482137044270833,
1206,1206,4871,2021-09-27 15:07:31.699,-0.4032548268636068,
1207,1207,4875,2021-09-27 15:07:31.703,-0.0307782491048177,
1208,1208,4879,2021-09-27 15:07:31.707,-0.3179423014322917,
1209,1209,4883,2021-09-27 15:07:31.711,-0.1745096842447916,
1210,1210,4887,2021-09-27 15:07:31.715,-0.1189295450846354,
1211,1211,4891,2021-09-27 15:07:31.719,-0.3904056549072266,
1212,1212,4895,2021-09-27 15:07:31.723,-0.0395933787027994,
1213,1213,4899,2021-09-27 15:07:31.727,-0.3526051839192708,
1214,1214,4903,2021-09-27 15:07:31.731,-0.2099196116129557,
1215,1215,4907,2021-09-27 15:07:31.735,-0.1304340362548828,
1216,1216,4911,2021-09-27 15:07:31.739,-0.3702354431152344,
1217,1217,4915,2021-09-27 15:07:31.743,-0.0082174936930338,
1218,1218,4919,2021-09-27 15:07:31.747,-0.3319867451985677,
1219,1219,4923,2021-09-27 15:07:31.751,-0.2182865142822266,
1220,1220,4927,2021-09-27 15:07:31.755,-0.157477060953776,
1221,1221,4931,2021-09-27 15:07:31.759,-0.3823375701904297,
1222,1222,4935,2021-09-27 15:07:31.763,-0.0061257680257161,
1223,1223,4939,2021-09-27 15:07:31.767,-0.323171615600586,
1224,1224,4943,2021-09-27 15:07:31.771,-0.2178382873535156,
1225,1225,4947,2021-09-27 15:07:31.775,-0.1564311981201172,
1226,1226,4951,2021-09-27 15:07:31.779,-0.3830846150716146,
1227,1227,4955,2021-09-27 15:07:31.783,-0.021514892578125,
1228,1228,4959,2021-09-27 15:07:31.787,-0.329596201578776,
1229,1229,4963,2021-09-27 15:07:31.791,-0.2025985717773437,
1230,1230,4967,2021-09-27 15:07:31.795,-0.1532936096191406,
1231,1231,4971,2021-09-27 15:07:31.799,-0.3863716125488282,
1232,1232,4975,2021-09-27 15:07:31.803,-0.0259971618652343,
1233,1233,4979,2021-09-27 15:07:31.807,-0.3493181864420573,
1234,1234,4983,2021-09-27 15:07:31.811,-0.2250099182128906,
1235,1235,4987,2021-09-27 15:07:31.815,-0.1450761159261067,
1236,1236,4991,2021-09-27 15:07:31.819,-0.3869692484537761,
1237,1237,4995,2021-09-27 15:07:31.823,-0.0407886505126953,
1238,1238,4999,2021-09-27 15:07:31.827,-0.3437900543212891,
1239,1239,5003,2021-09-27 15:07:31.831,-0.2139536539713541,
1240,1240,5007,2021-09-27 15:07:31.835,-0.1555347442626953,
1241,1241,5011,2021-09-27 15:07:31.839,-0.4238732655843099,
1242,1242,5015,2021-09-27 15:07:31.843,-0.0534884134928385,
1243,1243,5019,2021-09-27 15:07:31.847,-0.330044428507487,
1244,1244,5023,2021-09-27 15:07:31.851,-0.1869106292724609,
1245,1245,5027,2021-09-27 15:07:31.855,-0.1281929016113281,
1246,1246,5031,2021-09-27 15:07:31.859,-0.3883139292399089,
1247,1247,5035,2021-09-27 15:07:31.863,-0.0333182017008463,
1248,1248,5039,2021-09-27 15:07:31.867,-0.3292973836263021,
1249,1249,5043,2021-09-27 15:07:31.871,-0.1795895894368489,
1250,1250,5047,2021-09-27 15:07:31.875,-0.1122061411539713,
1251,1251,5051,2021-09-27 15:07:31.879,-0.3766600290934245,
1252,1252,5055,2021-09-27 15:07:31.883,-0.0412368774414062,
1253,1253,5059,2021-09-27 15:07:31.887,-0.3549957275390625,
1254,1254,5063,2021-09-27 15:07:31.891,-0.2111148834228516,
1255,1255,5067,2021-09-27 15:07:31.895,-0.1328245798746745,
1256,1256,5071,2021-09-27 15:07:31.899,-0.3666496276855469,
1257,1257,5075,2021-09-27 15:07:31.903,0.0370534261067708,
1258,1258,5079,2021-09-27 15:07:31.907,-0.2091725667317708,
1259,1259,5083,2021-09-27 15:07:31.911,0.020917256673177,
1260,1260,5087,2021-09-27 15:07:31.915,0.1887035369873047,
1261,1261,5091,2021-09-27 15:07:31.919,0.0058269500732421,
1262,1262,5095,2021-09-27 15:07:31.923,0.3219763437906901,
1263,1263,5099,2021-09-27 15:07:31.927,-0.0965181986490885,
1264,1264,5103,2021-09-27 15:07:31.931,-0.2516047159830729,
1265,1265,5107,2021-09-27 15:07:31.935,-0.5589389801025392,
1266,1266,5111,2021-09-27 15:07:31.939,-1.0959148406982424,
1267,1267,5115,2021-09-27 15:07:31.943,-0.8712037404378257,
1268,1268,5119,2021-09-27 15:07:31.947,-1.0850079854329429,
1269,1269,5123,2021-09-27 15:07:31.951,-0.7349427541097006,
1270,1270,5127,2021-09-27 15:07:31.955,-0.359029769897461,
1271,1271,5131,2021-09-27 15:07:31.959,-0.3506628672281901,
1272,1272,5135,2021-09-27 15:07:31.963,0.1567300160725911,
1273,1273,5139,2021-09-27 15:07:31.967,-0.0629011789957682,
1274,1274,5143,2021-09-27 15:07:31.971,0.0824737548828125,
1275,1275,5147,2021-09-27 15:07:31.975,0.114148457845052,
1276,1276,5151,2021-09-27 15:07:31.979,-0.1836236317952474,
1277,1277,5155,2021-09-27 15:07:31.983,0.1317787170410156,
1278,1278,5159,2021-09-27 15:07:31.987,-0.2124595642089844,
1279,1279,5163,2021-09-27 15:07:31.991,-0.1053333282470703,
1280,1280,5167,2021-09-27 15:07:31.995,-0.0409380594889322,
1281,1281,5171,2021-09-27 15:07:31.999,-0.2917957305908203,
1282,1282,5175,2021-09-27 15:07:32.003,0.0652917226155599,
1283,1283,5179,2021-09-27 15:07:32.007,-0.2526505788167318,
1284,1284,5183,2021-09-27 15:07:32.011,-0.1644992828369141,
1285,1285,5187,2021-09-27 15:07:32.015,-0.1308822631835937,
1286,1286,5191,2021-09-27 15:07:32.019,-0.38726806640625,
1287,1287,5195,2021-09-27 15:07:32.023,-0.0383981068929036,
1288,1288,5199,2021-09-27 15:07:32.027,-0.3618685404459635,
1289,1289,5203,2021-09-27 15:07:32.031,-0.2338250478108724,
1290,1290,5207,2021-09-27 15:07:32.035,-0.1485125223795573,
1291,1291,5211,2021-09-27 15:07:32.039,-0.387865702311198,
1292,1292,5215,2021-09-27 15:07:32.043,-0.0271924336751302,
1293,1293,5219,2021-09-27 15:07:32.047,-0.3422959645589193,
1294,1294,5223,2021-09-27 15:07:32.051,-0.2306874593098958,
1295,1295,5227,2021-09-27 15:07:32.055,-0.1912434895833333,
1296,1296,5231,2021-09-27 15:07:32.059,-0.4440434773763021,
1297,1297,5235,2021-09-27 15:07:32.063,-0.0627517700195312,
1298,1298,5239,2021-09-27 15:07:32.067,-0.343939463297526,
1299,1299,5243,2021-09-27 15:07:32.071,-0.1922893524169922,
1300,1300,5247,2021-09-27 15:07:32.075,-0.1352151234944661,
1301,1301,5251,2021-09-27 15:07:32.079,-0.4104264577229818,
1302,1302,5255,2021-09-27 15:07:32.083,-0.0809796651204427,
1303,1303,5259,2021-09-27 15:07:32.087,-0.3611214955647787,
1304,1304,5263,2021-09-27 15:07:32.091,-0.1763025919596354,
1305,1305,5267,2021-09-27 15:07:32.095,-0.0966676076253255,
1306,1306,5271,2021-09-27 15:07:32.099,-0.3499158223470052,
1307,1307,5275,2021-09-27 15:07:32.103,-0.0146420796712239,
1308,1308,5279,2021-09-27 15:07:32.107,-0.344088872273763,
1309,1309,5283,2021-09-27 15:07:32.111,-0.2381579081217448,
1310,1310,5287,2021-09-27 15:07:32.115,-0.1822789510091146,
1311,1311,5291,2021-09-27 15:07:32.119,-0.4025077819824219,
1312,1312,5295,2021-09-27 15:07:32.123,-0.0240548451741536,
1313,1313,5299,2021-09-27 15:07:32.127,-0.3161493937174479,
1314,1314,5303,2021-09-27 15:07:32.131,-0.193335215250651,
1315,1315,5307,2021-09-27 15:07:32.135,-0.1316293080647786,
1316,1316,5311,2021-09-27 15:07:32.139,-0.3845787048339844,
1317,1317,5315,2021-09-27 15:07:32.143,-0.0588671366373697,
1318,1318,5319,2021-09-27 15:07:32.147,-0.3548463185628255,
1319,1319,5323,2021-09-27 15:07:32.151,-0.1417891184488932,
1320,1320,5327,2021-09-27 15:07:32.155,-0.0295829772949218,
1321,1321,5331,2021-09-27 15:07:32.159,-0.3104718526204427,
1322,1322,5335,2021-09-27 15:07:32.163,-0.0253995259602864,
1323,1323,5339,2021-09-27 15:07:32.167,-0.3923479715983073,
1324,1324,5343,2021-09-27 15:07:32.171,-0.2608680725097657,
1325,1325,5347,2021-09-27 15:07:32.175,-0.1795895894368489,
1326,1326,5351,2021-09-27 15:07:32.179,-0.4244709014892578,
1327,1327,5355,2021-09-27 15:07:32.183,-0.0629011789957682,
1328,1328,5359,2021-09-27 15:07:32.187,-0.3696378072102865,
1329,1329,5363,2021-09-27 15:07:32.191,-0.2348709106445312,
1330,1330,5367,2021-09-27 15:07:32.195,-0.1761531829833984,
1331,1331,5371,2021-09-27 15:07:32.199,-0.416103998819987,
1332,1332,5375,2021-09-27 15:07:32.203,-0.0464661916097005,
1333,1333,5379,2021-09-27 15:07:32.207,-0.3425947825113932,
1334,1334,5383,2021-09-27 15:07:32.211,-0.2108160654703776,
1335,1335,5387,2021-09-27 15:07:32.215,-0.1631546020507812,
1336,1336,5391,2021-09-27 15:07:32.219,-0.4294013977050782,
1337,1337,5395,2021-09-27 15:07:32.223,-0.0593153635660807,
1338,1338,5399,2021-09-27 15:07:32.227,-0.3470770517985026,
1339,1339,5403,2021-09-27 15:07:32.231,-0.186312993367513,
1340,1340,5407,2021-09-27 15:07:32.235,-0.1044368743896484,
1341,1341,5411,2021-09-27 15:07:32.239,-0.3461805979410807,
1342,1342,5415,2021-09-27 15:07:32.243,0.0237560272216796,
1343,1343,5419,2021-09-27 15:07:32.247,-0.2974732716878255,
1344,1344,5423,2021-09-27 15:07:32.251,-0.1786931355794271,
1345,1345,5427,2021-09-27 15:07:32.255,-0.1192283630371093,
1346,1346,5431,2021-09-27 15:07:32.259,-0.3821881612141927,
1347,1347,5435,2021-09-27 15:07:32.263,-0.021216074625651,
1348,1348,5439,2021-09-27 15:07:32.267,-0.3270562489827474,
1349,1349,5443,2021-09-27 15:07:32.271,-0.1979668935139974,
1350,1350,5447,2021-09-27 15:07:32.275,-0.1434326171875,
1351,1351,5451,2021-09-27 15:07:32.279,-0.3889115651448568,
1352,1352,5455,2021-09-27 15:07:32.283,-0.0041834513346354,
1353,1353,5459,2021-09-27 15:07:32.287,-0.3162988026936849,
1354,1354,5463,2021-09-27 15:07:32.291,-0.2072302500406901,
1355,1355,5467,2021-09-27 15:07:32.295,-0.1559829711914062,
1356,1356,5471,2021-09-27 15:07:32.299,-0.3936926523844402,
1357,1357,5475,2021-09-27 15:07:32.303,-0.0116539001464843,
1358,1358,5479,2021-09-27 15:07:32.307,-0.3148047129313151,
1359,1359,5483,2021-09-27 15:07:32.311,-0.1961739857991536,
1360,1360,5487,2021-09-27 15:07:32.315,-0.1476160685221354,
1361,1361,5491,2021-09-27 15:07:32.319,-0.401760737101237,
1362,1362,5495,2021-09-27 15:07:32.323,-0.0292841593424479,
1363,1363,5499,2021-09-27 15:07:32.327,-0.3170458475748698,
1364,1364,5503,2021-09-27 15:07:32.331,-0.1922893524169922,
1365,1365,5507,2021-09-27 15:07:32.335,-0.1627063751220703,
1366,1366,5511,2021-09-27 15:07:32.339,-0.4323895772298177,
1367,1367,5515,2021-09-27 15:07:32.343,-0.0539366404215494,
1368,1368,5519,2021-09-27 15:07:32.347,-0.3339290618896485,
1369,1369,5523,2021-09-27 15:07:32.351,-0.1978174845377604,
1370,1370,5527,2021-09-27 15:07:32.355,-0.1296869913736979,
1371,1371,5531,2021-09-27 15:07:32.359,-0.3833834330240886,
1372,1372,5535,2021-09-27 15:07:32.363,-0.0248018900553385,
1373,1373,5539,2021-09-27 15:07:32.367,-0.32989501953125,
1374,1374,5543,2021-09-27 15:07:32.371,-0.2160453796386719,
1375,1375,5547,2021-09-27 15:07:32.375,-0.1742108662923177,
1376,1376,5551,2021-09-27 15:07:32.379,-0.4035536448160808,
1377,1377,5555,2021-09-27 15:07:32.383,-0.0109068552652994,
1378,1378,5559,2021-09-27 15:07:32.387,-0.3203328450520833,
1379,1379,5563,2021-09-27 15:07:32.391,-0.2211252848307291,
1380,1380,5567,2021-09-27 15:07:32.395,-0.1831754048665364,
1381,1381,5571,2021-09-27 15:07:32.399,-0.4364236195882162,
1382,1382,5575,2021-09-27 15:07:32.403,-0.0609588623046875,
1383,1383,5579,2021-09-27 15:07:32.407,-0.3288491566975912,
1384,1384,5583,2021-09-27 15:07:32.411,-0.1582241058349609,
1385,1385,5587,2021-09-27 15:07:32.415,-0.0887489318847656,
1386,1386,5591,2021-09-27 15:07:32.419,-0.3591791788736979,
1387,1387,5595,2021-09-27 15:07:32.423,-0.0274912516276041,
1388,1388,5599,2021-09-27 15:07:32.427,-0.3418477376302083,
1389,1389,5603,2021-09-27 15:07:32.431,-0.2124595642089844,
1390,1390,5607,2021-09-27 15:07:32.435,-0.1559829711914062,
1391,1391,5611,2021-09-27 15:07:32.439,-0.4382165273030599,
1392,1392,5615,2021-09-27 15:07:32.443,-0.0924841562906901,
1393,1393,5619,2021-09-27 15:07:32.447,-0.3639602661132813,
1394,1394,5623,2021-09-27 15:07:32.451,-0.1849683125813802,
1395,1395,5627,2021-09-27 15:07:32.455,-0.0893465677897135,
1396,1396,5631,2021-09-27 15:07:32.459,-0.3248151143391927,
1397,1397,5635,2021-09-27 15:07:32.463,0.0258477528889973,
1398,1398,5639,2021-09-27 15:07:32.467,-0.3162988026936849,
1399,1399,5643,2021-09-27 15:07:32.471,-0.2135054270426432,
1400,1400,5647,2021-09-27 15:07:32.475,-0.1609134674072266,
1401,1401,5651,2021-09-27 15:07:32.479,-0.4150581359863282,
1402,1402,5655,2021-09-27 15:07:32.483,-0.0382486979166666,
1403,1403,5659,2021-09-27 15:07:32.487,-0.3419971466064453,
1404,1404,5663,2021-09-27 15:07:32.491,-0.215298334757487,
1405,1405,5667,2021-09-27 15:07:32.495,-0.1517995198567708,
1406,1406,5671,2021-09-27 15:07:32.499,-0.402059555053711,
1407,1407,5675,2021-09-27 15:07:32.503,-0.0262959798177083,
1408,1408,5679,2021-09-27 15:07:32.507,-0.3243668874104818,
1409,1409,5683,2021-09-27 15:07:32.511,-0.1946798960367838,
1410,1410,5687,2021-09-27 15:07:32.515,-0.1311810811360677,
1411,1411,5691,2021-09-27 15:07:32.519,-0.3966808319091797,
1412,1412,5695,2021-09-27 15:07:32.523,-0.0534884134928385,
1413,1413,5699,2021-09-27 15:07:32.527,-0.3505134582519532,
1414,1414,5703,2021-09-27 15:07:32.531,-0.18646240234375,
1415,1415,5707,2021-09-27 15:07:32.535,-0.1089191436767578,
1416,1416,5711,2021-09-27 15:07:32.539,-0.3781541188557943,
1417,1417,5715,2021-09-27 15:07:32.543,-0.0407886505126953,
1418,1418,5719,2021-09-27 15:07:32.547,-0.3505134582519532,
1419,1419,5723,2021-09-27 15:07:32.551,-0.2043914794921875,
1420,1420,5727,2021-09-27 15:07:32.555,-0.121320088704427,
1421,1421,5731,2021-09-27 15:07:32.559,-0.3754647572835287,
1422,1422,5735,2021-09-27 15:07:32.563,-0.0265947977701822,
1423,1423,5739,2021-09-27 15:07:32.567,-0.3422959645589193,
1424,1424,5743,2021-09-27 15:07:32.571,-0.2161947886149088,
1425,1425,5747,2021-09-27 15:07:32.575,-0.1549371083577474,
1426,1426,5751,2021-09-27 15:07:32.579,-0.4141616821289063,
1427,1427,5755,2021-09-27 15:07:32.583,-0.0534884134928385,
1428,1428,5759,2021-09-27 15:07:32.587,-0.3348255157470703,
1429,1429,5763,2021-09-27 15:07:32.591,-0.1906458536783854,
1430,1430,5767,2021-09-27 15:07:32.595,-0.1195271809895833,
1431,1431,5771,2021-09-27 15:07:32.599,-0.3688907623291016,
1432,1432,5775,2021-09-27 15:07:32.603,-0.0182278951009114,
1433,1433,5779,2021-09-27 15:07:32.607,-0.3391583760579427,
1434,1434,5783,2021-09-27 15:07:32.611,-0.2147006988525391,
1435,1435,5787,2021-09-27 15:07:32.615,-0.1528453826904297,
1436,1436,5791,2021-09-27 15:07:32.619,-0.3901068369547527,
1437,1437,5795,2021-09-27 15:07:32.623,-0.0271924336751302,
1438,1438,5799,2021-09-27 15:07:32.627,-0.344537099202474,
1439,1439,5803,2021-09-27 15:07:32.631,-0.229193369547526,
1440,1440,5807,2021-09-27 15:07:32.635,-0.1532936096191406,
1441,1441,5811,2021-09-27 15:07:32.639,-0.3703848520914714,
1442,1442,5815,2021-09-27 15:07:32.643,0.0392945607503255,
1443,1443,5819,2021-09-27 15:07:32.647,-0.1869106292724609,
1444,1444,5823,2021-09-27 15:07:32.651,-0.3491687774658203,
1445,1445,5827,2021-09-27 15:07:32.655,-0.1053333282470703,
1446,1446,5831,2021-09-27 15:07:32.659,-0.4332860310872396,
1447,1447,5835,2021-09-27 15:07:32.663,-0.11474609375,
1448,1448,5839,2021-09-27 15:07:32.667,-0.243984858194987,
1449,1449,5843,2021-09-27 15:07:32.671,-0.3384113311767578,
1450,1450,5847,2021-09-27 15:07:32.675,-0.0794855753580729,
1451,1451,5851,2021-09-27 15:07:32.679,-0.3995196024576823,
1452,1452,5855,2021-09-27 15:07:32.683,-0.0835196177164713,
1453,1453,5859,2021-09-27 15:07:32.687,-0.2405484517415365,
1454,1454,5863,2021-09-27 15:07:32.691,-0.3188387552897135,
1455,1455,5867,2021-09-27 15:07:32.695,-0.0345134735107421,
1456,1456,5871,2021-09-27 15:07:32.699,-0.3712813059488932,
1457,1457,5875,2021-09-27 15:07:32.703,-0.0844160715738932,
1458,1458,5879,2021-09-27 15:07:32.707,-0.2495129903157552,
1459,1459,5883,2021-09-27 15:07:32.711,-0.3249645233154297,
1460,1460,5887,2021-09-27 15:07:32.715,-0.042581558227539,
1461,1461,5891,2021-09-27 15:07:32.719,-0.3663508097330729,
1462,1462,5895,2021-09-27 15:07:32.723,-0.0546836853027343,
1463,1463,5899,2021-09-27 15:07:32.727,-0.2058855692545573,
1464,1464,5903,2021-09-27 15:07:32.731,-0.3025531768798828,
1465,1465,5907,2021-09-27 15:07:32.735,-0.0603612263997395,
1466,1466,5911,2021-09-27 15:07:32.739,-0.4208850860595703,
1467,1467,5915,2021-09-27 15:07:32.743,-0.1350657145182291,
1468,1468,5919,2021-09-27 15:07:32.747,-0.293738047281901,
1469,1469,5923,2021-09-27 15:07:32.751,-0.3593285878499349,
1470,1470,5927,2021-09-27 15:07:32.755,-0.0566260019938151,
1471,1471,5931,2021-09-27 15:07:32.759,-0.3850269317626953,
1472,1472,5935,2021-09-27 15:07:32.763,-0.100104014078776,
1473,1473,5939,2021-09-27 15:07:32.767,-0.2608680725097657,
1474,1474,5943,2021-09-27 15:07:32.771,-0.3402042388916016,
1475,1475,5947,2021-09-27 15:07:32.775,-0.071118672688802,
1476,1476,5951,2021-09-27 15:07:32.779,-0.3941408793131511,
1477,1477,5955,2021-09-27 15:07:32.783,-0.0756009419759114,
1478,1478,5959,2021-09-27 15:07:32.787,-0.2206770579020182,
1479,1479,5963,2021-09-27 15:07:32.791,-0.3110694885253907,
1480,1480,5967,2021-09-27 15:07:32.795,-0.0434780120849609,
1481,1481,5971,2021-09-27 15:07:32.799,-0.3845787048339844,
1482,1482,5975,2021-09-27 15:07:32.803,-0.085760752360026,
1483,1483,5979,2021-09-27 15:07:32.807,-0.2351697285970052,
1484,1484,5983,2021-09-27 15:07:32.811,-0.3198846181233724,
1485,1485,5987,2021-09-27 15:07:32.815,-0.0507990519205729,
1486,1486,5991,2021-09-27 15:07:32.819,-0.3781541188557943,
1487,1487,5995,2021-09-27 15:07:32.823,-0.0956217447916666,
1488,1488,5999,2021-09-27 15:07:32.827,-0.2483177185058594,
1489,1489,6003,2021-09-27 15:07:32.831,-0.2811876932779948,
1490,1490,6007,2021-09-27 15:07:32.835,0.0708198547363281,
1491,1491,6011,2021-09-27 15:07:32.839,-0.1822789510091146,
1492,1492,6015,2021-09-27 15:07:32.843,0.1985645294189453,
1493,1493,6019,2021-09-27 15:07:32.847,0.1007016499837239,
1494,1494,6023,2021-09-27 15:07:32.851,-0.0240548451741536,
1495,1495,6027,2021-09-27 15:07:32.855,0.1316293080647786,
1496,1496,6031,2021-09-27 15:07:32.859,-0.3769588470458985,
1497,1497,6035,2021-09-27 15:07:32.863,-0.3673966725667318,
1498,1498,6039,2021-09-27 15:07:32.867,-0.7846959431966147,
1499,1499,6043,2021-09-27 15:07:32.871,-1.02629025777181,
1500,1500,6047,2021-09-27 15:07:32.875,-0.7586987813313802,
1501,1501,6051,2021-09-27 15:07:32.879,-0.932610829671224,
1502,1502,6055,2021-09-27 15:07:32.883,-0.4063924153645833,
1503,1503,6059,2021-09-27 15:07:32.887,-0.2959791819254557,
1504,1504,6063,2021-09-27 15:07:32.891,-0.186312993367513,
1505,1505,6067,2021-09-27 15:07:32.895,0.1881059010823567,
1506,1506,6071,2021-09-27 15:07:32.899,-0.1102638244628906,
1507,1507,6075,2021-09-27 15:07:32.903,0.1685333251953125,
1508,1508,6079,2021-09-27 15:07:32.907,-0.0227101643880208,
1509,1509,6083,2021-09-27 15:07:32.911,-0.1455243428548177,
1510,1510,6087,2021-09-27 15:07:32.915,0.1015981038411458,
1511,1511,6091,2021-09-27 15:07:32.919,-0.2610174814860026,
1512,1512,6095,2021-09-27 15:07:32.923,0.0100104014078776,
1513,1513,6099,2021-09-27 15:07:32.927,-0.1700274149576823,
1514,1514,6103,2021-09-27 15:07:32.931,-0.2819347381591797,
1515,1515,6107,2021-09-27 15:07:32.935,-0.0376510620117187,
1516,1516,6111,2021-09-27 15:07:32.939,-0.3666496276855469,
1517,1517,6115,2021-09-27 15:07:32.943,-0.0530401865641276,
1518,1518,6119,2021-09-27 15:07:32.947,-0.1967716217041016,
1519,1519,6123,2021-09-27 15:07:32.951,-0.2929910024007162,
1520,1520,6127,2021-09-27 15:07:32.955,-0.0588671366373697,
1521,1521,6131,2021-09-27 15:07:32.959,-0.4325389862060547,
1522,1522,6135,2021-09-27 15:07:32.963,-0.1685333251953125,
1523,1523,6139,2021-09-27 15:07:32.967,-0.3109200795491537,
1524,1524,6143,2021-09-27 15:07:32.971,-0.3482723236083985,
1525,1525,6147,2021-09-27 15:07:32.975,-0.0527413686116536,
1526,1526,6151,2021-09-27 15:07:32.979,-0.387417475382487,
1527,1527,6155,2021-09-27 15:07:32.983,-0.1102638244628906,
1528,1528,6159,2021-09-27 15:07:32.987,-0.2786477406819662,
1529,1529,6163,2021-09-27 15:07:32.991,-0.3493181864420573,
1530,1530,6167,2021-09-27 15:07:32.995,-0.0591659545898437,
1531,1531,6171,2021-09-27 15:07:32.999,-0.380395253499349,
1532,1532,6175,2021-09-27 15:07:33.003,-0.0842666625976562,
1533,1533,6179,2021-09-27 15:07:33.007,-0.2595233917236328,
1534,1534,6183,2021-09-27 15:07:33.011,-0.3491687774658203,
1535,1535,6187,2021-09-27 15:07:33.015,-0.0673834482828776,
1536,1536,6191,2021-09-27 15:07:33.019,-0.3910032908121745,
1537,1537,6195,2021-09-27 15:07:33.023,-0.0793361663818359,
1538,1538,6199,2021-09-27 15:07:33.027,-0.2323309580485026,
1539,1539,6203,2021-09-27 15:07:33.031,-0.3165976206461589,
1540,1540,6207,2021-09-27 15:07:33.035,-0.0530401865641276,
1541,1541,6211,2021-09-27 15:07:33.039,-0.3905550638834636,
1542,1542,6215,2021-09-27 15:07:33.043,-0.0905418395996093,
1543,1543,6219,2021-09-27 15:07:33.047,-0.2469730377197266,
1544,1544,6223,2021-09-27 15:07:33.051,-0.3145058949788412,
1545,1545,6227,2021-09-27 15:07:33.055,-0.0434780120849609,
1546,1546,6231,2021-09-27 15:07:33.059,-0.3821881612141927,
1547,1547,6235,2021-09-27 15:07:33.063,-0.0871054331461588,
1548,1548,6239,2021-09-27 15:07:33.067,-0.2371120452880859,
1549,1549,6243,2021-09-27 15:07:33.071,-0.3237692515055339,
1550,1550,6247,2021-09-27 15:07:33.075,-0.0631999969482422,
1551,1551,6251,2021-09-27 15:07:33.079,-0.3723271687825521,
1552,1552,6255,2021-09-27 15:07:33.083,-0.056775410970052,
1553,1553,6259,2021-09-27 15:07:33.087,-0.2274004618326823,
1554,1554,6263,2021-09-27 15:07:33.091,-0.3188387552897135,
1555,1555,6267,2021-09-27 15:07:33.095,-0.0579706827799479,
1556,1556,6271,2021-09-27 15:07:33.099,-0.4025077819824219,
1557,1557,6275,2021-09-27 15:07:33.103,-0.1056321461995442,
1558,1558,6279,2021-09-27 15:07:33.107,-0.2562363942464193,
1559,1559,6283,2021-09-27 15:07:33.111,-0.3260103861490885,
1560,1560,6287,2021-09-27 15:07:33.115,-0.0524425506591796,
1561,1561,6291,2021-09-27 15:07:33.119,-0.387865702311198,
1562,1562,6295,2021-09-27 15:07:33.123,-0.0968170166015625,
1563,1563,6299,2021-09-27 15:07:33.127,-0.257879892985026,
1564,1564,6303,2021-09-27 15:07:33.131,-0.3345266977945964,
1565,1565,6307,2021-09-27 15:07:33.135,-0.0729115804036458,
1566,1566,6311,2021-09-27 15:07:33.139,-0.4389635721842448,
1567,1567,6315,2021-09-27 15:07:33.143,-0.1471678415934245,
1568,1568,6319,2021-09-27 15:07:33.147,-0.2761077880859375,
1569,1569,6323,2021-09-27 15:07:33.151,-0.3408018747965495,
1570,1570,6327,2021-09-27 15:07:33.155,-0.064096450805664,
1571,1571,6331,2021-09-27 15:07:33.159,-0.3815905253092448,
1572,1572,6335,2021-09-27 15:07:33.163,-0.0772444407145182,
1573,1573,6339,2021-09-27 15:07:33.167,-0.2387555440266927,
1574,1574,6343,2021-09-27 15:07:33.171,-0.3168964385986328,
1575,1575,6347,2021-09-27 15:07:33.175,-0.0389957427978515,
1576,1576,6351,2021-09-27 15:07:33.179,-0.3723271687825521,
1577,1577,6355,2021-09-27 15:07:33.183,-0.0866572062174479,
1578,1578,6359,2021-09-27 15:07:33.187,-0.2305380503336588,
1579,1579,6363,2021-09-27 15:07:33.191,-0.2994155883789063,
1580,1580,6367,2021-09-27 15:07:33.195,-0.0294335683186848,
1581,1581,6371,2021-09-27 15:07:33.199,-0.3699366251627604,
1582,1582,6375,2021-09-27 15:07:33.203,-0.0793361663818359,
1583,1583,6379,2021-09-27 15:07:33.207,-0.243536631266276,
1584,1584,6383,2021-09-27 15:07:33.211,-0.3258609771728516,
1585,1585,6387,2021-09-27 15:07:33.215,-0.0394439697265625,
1586,1586,6391,2021-09-27 15:07:33.219,-0.3675460815429688,
1587,1587,6395,2021-09-27 15:07:33.223,-0.0751527150472005,
1588,1588,6399,2021-09-27 15:07:33.227,-0.257879892985026,
1589,1589,6403,2021-09-27 15:07:33.231,-0.3526051839192708,
1590,1590,6407,2021-09-27 15:07:33.235,-0.0735092163085937,
1591,1591,6411,2021-09-27 15:07:33.239,-0.4035536448160808,
1592,1592,6415,2021-09-27 15:07:33.243,-0.0923347473144531,
1593,1593,6419,2021-09-27 15:07:33.247,-0.2412954966227213,
1594,1594,6423,2021-09-27 15:07:33.251,-0.3174940745035807,
1595,1595,6427,2021-09-27 15:07:33.255,-0.0466156005859375,
1596,1596,6431,2021-09-27 15:07:33.259,-0.3905550638834636,
1597,1597,6435,2021-09-27 15:07:33.263,-0.0938288370768229,
1598,1598,6439,2021-09-27 15:07:33.267,-0.2398014068603516,
1599,1599,6443,2021-09-27 15:07:33.271,-0.308529535929362,
1600,1600,6447,2021-09-27 15:07:33.275,-0.0289853413899739,
1601,1601,6451,2021-09-27 15:07:33.279,-0.3851763407389323,
1602,1602,6455,2021-09-27 15:07:33.283,-0.099805196126302,
1603,1603,6459,2021-09-27 15:07:33.287,-0.2601210276285807,
1604,1604,6463,2021-09-27 15:07:33.291,-0.3413995107014974,
1605,1605,6467,2021-09-27 15:07:33.295,-0.057074228922526,
1606,1606,6471,2021-09-27 15:07:33.299,-0.380096435546875,
1607,1607,6475,2021-09-27 15:07:33.303,-0.0820255279541015,
1608,1608,6479,2021-09-27 15:07:33.307,-0.2442836761474609,
1609,1609,6483,2021-09-27 15:07:33.311,-0.3289985656738282,
1610,1610,6487,2021-09-27 15:07:33.315,-0.0561777750651041,
1611,1611,6491,2021-09-27 15:07:33.319,-0.3974278767903646,
1612,1612,6495,2021-09-27 15:07:33.323,-0.1041380564371745,
1613,1613,6499,2021-09-27 15:07:33.327,-0.2681891123453776,
1614,1614,6503,2021-09-27 15:07:33.331,-0.3431924184163412,
1615,1615,6507,2021-09-27 15:07:33.335,-0.0542354583740234,
1616,1616,6511,2021-09-27 15:07:33.339,-0.3917503356933594,
1617,1617,6515,2021-09-27 15:07:33.343,-0.0911394755045573,
1618,1618,6519,2021-09-27 15:07:33.347,-0.2409966786702474,
1619,1619,6523,2021-09-27 15:07:33.351,-0.3056907653808594,
1620,1620,6527,2021-09-27 15:07:33.355,-0.0253995259602864,
1621,1621,6531,2021-09-27 15:07:33.359,-0.3669484456380208,
1622,1622,6535,2021-09-27 15:07:33.363,-0.0757503509521484,
1623,1623,6539,2021-09-27 15:07:33.367,-0.2492141723632812,
1624,1624,6543,2021-09-27 15:07:33.371,-0.3629144032796224,
1625,1625,6547,2021-09-27 15:07:33.375,-0.0897947947184244,
1626,1626,6551,2021-09-27 15:07:33.379,-0.3917503356933594,
1627,1627,6555,2021-09-27 15:07:33.383,-0.0758997599283854,
1628,1628,6559,2021-09-27 15:07:33.387,-0.2282969156901041,
1629,1629,6563,2021-09-27 15:07:33.391,-0.3137588500976563,
1630,1630,6567,2021-09-27 15:07:33.395,-0.0484085083007812,
1631,1631,6571,2021-09-27 15:07:33.399,-0.3886127471923828,
1632,1632,6575,2021-09-27 15:07:33.403,-0.0945758819580078,
1633,1633,6579,2021-09-27 15:07:33.407,-0.2536964416503907,
1634,1634,6583,2021-09-27 15:07:33.411,-0.3351243336995443,
1635,1635,6587,2021-09-27 15:07:33.415,-0.0530401865641276,
1636,1636,6591,2021-09-27 15:07:33.419,-0.3848775227864583,
1637,1637,6595,2021-09-27 15:07:33.423,-0.0829219818115234,
1638,1638,6599,2021-09-27 15:07:33.427,-0.2299404144287109,
1639,1639,6603,2021-09-27 15:07:33.431,-0.3103224436442057,
1640,1640,6607,2021-09-27 15:07:33.435,-0.0366051991780599,
1641,1641,6611,2021-09-27 15:07:33.439,-0.3762118021647135,
1642,1642,6615,2021-09-27 15:07:33.443,-0.0891971588134765,
1643,1643,6619,2021-09-27 15:07:33.447,-0.251305898030599,
1644,1644,6623,2021-09-27 15:07:33.451,-0.3324349721272787,
1645,1645,6627,2021-09-27 15:07:33.455,-0.042581558227539,
1646,1646,6631,2021-09-27 15:07:33.459,-0.380544662475586,
1647,1647,6635,2021-09-27 15:07:33.463,-0.0923347473144531,
1648,1648,6639,2021-09-27 15:07:33.467,-0.2637068430582682,
1649,1649,6643,2021-09-27 15:07:33.471,-0.3539498647054037,
1650,1650,6647,2021-09-27 15:07:33.475,-0.0657399495442708,
1651,1651,6651,2021-09-27 15:07:33.479,-0.4037030537923177,
1652,1652,6655,2021-09-27 15:07:33.483,-0.1119073232014974,
1653,1653,6659,2021-09-27 15:07:33.487,-0.2538458506266276,
1654,1654,6663,2021-09-27 15:07:33.491,-0.3174940745035807,
1655,1655,6667,2021-09-27 15:07:33.495,-0.028238296508789,
1656,1656,6671,2021-09-27 15:07:33.499,-0.3632132212320964,
1657,1657,6675,2021-09-27 15:07:33.503,-0.0721645355224609,
1658,1658,6679,2021-09-27 15:07:33.507,-0.2635574340820313,
1659,1659,6683,2021-09-27 15:07:33.511,-0.3709824879964193,
1660,1660,6687,2021-09-27 15:07:33.515,-0.0611082712809244,
1661,1661,6691,2021-09-27 15:07:33.519,-0.3570874532063802,
1662,1662,6695,2021-09-27 15:07:33.523,-0.0466156005859375,
1663,1663,6699,2021-09-27 15:07:33.527,-0.2130572001139323,
1664,1664,6703,2021-09-27 15:07:33.531,-0.3162988026936849,
1665,1665,6707,2021-09-27 15:07:33.535,-0.0479602813720703,
1666,1666,6711,2021-09-27 15:07:33.539,-0.3962326049804688,
1667,1667,6715,2021-09-27 15:07:33.543,-0.1081720987955729,
1668,1668,6719,2021-09-27 15:07:33.547,-0.2716255187988282,
1669,1669,6723,2021-09-27 15:07:33.551,-0.3566392262776693,
1670,1670,6727,2021-09-27 15:07:33.555,-0.0512472788492838,
1671,1671,6731,2021-09-27 15:07:33.559,-0.365454355875651,
1672,1672,6735,2021-09-27 15:07:33.563,-0.0697739919026692,
1673,1673,6739,2021-09-27 15:07:33.567,-0.2516047159830729,
1674,1674,6743,2021-09-27 15:07:33.571,-0.3379631042480469,
1675,1675,6747,2021-09-27 15:07:33.575,-0.0256983439127604,
1676,1676,6751,2021-09-27 15:07:33.579,-0.3614203135172526,
1677,1677,6755,2021-09-27 15:07:33.583,-0.0891971588134765,
1678,1678,6759,2021-09-27 15:07:33.587,-0.2620633443196615,
1679,1679,6763,2021-09-27 15:07:33.591,-0.359029769897461,
1680,1680,6767,2021-09-27 15:07:33.595,-0.0687281290690104,
1681,1681,6771,2021-09-27 15:07:33.599,-0.3823375701904297,
1682,1682,6775,2021-09-27 15:07:33.603,-0.0629011789957682,
1683,1683,6779,2021-09-27 15:07:33.607,-0.2190335591634115,
1684,1684,6783,2021-09-27 15:07:33.611,-0.315402348836263,
1685,1685,6787,2021-09-27 15:07:33.615,-0.0389957427978515,
1686,1686,6791,2021-09-27 15:07:33.619,-0.3835328420003255,
1687,1687,6795,2021-09-27 15:07:33.623,-0.1099650065104166,
1688,1688,6799,2021-09-27 15:07:33.627,-0.2732690175374349,
1689,1689,6803,2021-09-27 15:07:33.631,-0.3546969095865885,
1690,1690,6807,2021-09-27 15:07:33.635,-0.0697739919026692,
1691,1691,6811,2021-09-27 15:07:33.639,-0.409380594889323,
1692,1692,6815,2021-09-27 15:07:33.643,-0.1390997568766276,
1693,1693,6819,2021-09-27 15:07:33.647,-0.0833702087402343,
1694,1694,6823,2021-09-27 15:07:33.651,-0.4180463155110677,
1695,1695,6827,2021-09-27 15:07:33.655,-0.0908406575520833,
1696,1696,6831,2021-09-27 15:07:33.659,-0.3818893432617188,
1697,1697,6835,2021-09-27 15:07:33.663,-0.2266534169514974,
1698,1698,6839,2021-09-27 15:07:33.667,-0.1259517669677734,
1699,1699,6843,2021-09-27 15:07:33.671,-0.3612709045410157,
1700,1700,6847,2021-09-27 15:07:33.675,0.0107574462890625,
1701,1701,6851,2021-09-27 15:07:33.679,-0.3189881642659505,
1702,1702,6855,2021-09-27 15:07:33.683,-0.2282969156901041,
1703,1703,6859,2021-09-27 15:07:33.687,-0.1777966817220052,
1704,1704,6863,2021-09-27 15:07:33.691,-0.4343318939208985,
1705,1705,6867,2021-09-27 15:07:33.695,-0.0461673736572265,
1706,1706,6871,2021-09-27 15:07:33.699,-0.3074836730957032,
1707,1707,6875,2021-09-27 15:07:33.703,-0.1691309611002604,
1708,1708,6879,2021-09-27 15:07:33.707,-0.0977134704589843,
1709,1709,6883,2021-09-27 15:07:33.711,-0.3496170043945313,
1710,1710,6887,2021-09-27 15:07:33.715,0.0398921966552734,
1711,1711,6891,2021-09-27 15:07:33.719,-0.2126089731852213,
1712,1712,6895,2021-09-27 15:07:33.723,-0.0083669026692708,
1713,1713,6899,2021-09-27 15:07:33.727,0.1679356892903646,
1714,1714,6903,2021-09-27 15:07:33.731,-0.0161361694335937,
1715,1715,6907,2021-09-27 15:07:33.735,0.3258609771728516,
1716,1716,6911,2021-09-27 15:07:33.739,-0.0389957427978515,
1717,1717,6915,2021-09-27 15:07:33.743,-0.0868066151936849,
1718,1718,6919,2021-09-27 15:07:33.747,-0.3854751586914063,
1719,1719,6923,2021-09-27 15:07:33.751,-1.0452651977539065,
1720,1720,6927,2021-09-27 15:07:33.755,-0.9439659118652344,
1721,1721,6931,2021-09-27 15:07:33.759,-1.2290382385253908,
1722,1722,6935,2021-09-27 15:07:33.763,-0.9103488922119142,
1723,1723,6939,2021-09-27 15:07:33.767,-0.5027612050374349,
1724,1724,6943,2021-09-27 15:07:33.771,-0.4615243275960287,
1725,1725,6947,2021-09-27 15:07:33.775,0.100552241007487,
1726,1726,6951,2021-09-27 15:07:33.779,-0.0769456227620442,
1727,1727,6955,2021-09-27 15:07:33.783,0.1104132334391276,
1728,1728,6959,2021-09-27 15:07:33.787,0.1634534200032552,
1729,1729,6963,2021-09-27 15:07:33.791,-0.1368586222330729,
1730,1730,6967,2021-09-27 15:07:33.795,0.2012538909912109,
1731,1731,6971,2021-09-27 15:07:33.799,-0.136260986328125,
1732,1732,6975,2021-09-27 15:07:33.803,-0.0588671366373697,
1733,1733,6979,2021-09-27 15:07:33.807,-0.0194231669108072,
1734,1734,6983,2021-09-27 15:07:33.811,-0.3050931294759115,
1735,1735,6987,2021-09-27 15:07:33.815,0.0621541341145833,
1736,1736,6991,2021-09-27 15:07:33.819,-0.2530988057454427,
1737,1737,6995,2021-09-27 15:07:33.823,-0.1580746968587239,
1738,1738,6999,2021-09-27 15:07:33.827,-0.114297866821289,
1739,1739,7003,2021-09-27 15:07:33.831,-0.3907044728597005,
1740,1740,7007,2021-09-27 15:07:33.835,-0.0392945607503255,
1741,1741,7011,2021-09-27 15:07:33.839,-0.3421465555826823,
1742,1742,7015,2021-09-27 15:07:33.843,-0.2161947886149088,
1743,1743,7019,2021-09-27 15:07:33.847,-0.1344680786132812,
1744,1744,7023,2021-09-27 15:07:33.851,-0.4069900512695313,
1745,1745,7027,2021-09-27 15:07:33.855,-0.0591659545898437,
1746,1746,7031,2021-09-27 15:07:33.859,-0.351409912109375,
1747,1747,7035,2021-09-27 15:07:33.863,-0.2175394694010416,
1748,1748,7039,2021-09-27 15:07:33.867,-0.1520983378092448,
1749,1749,7043,2021-09-27 15:07:33.871,-0.4180463155110677,
1750,1750,7047,2021-09-27 15:07:33.875,-0.0555801391601562,
1751,1751,7051,2021-09-27 15:07:33.879,-0.3543980916341146,
1752,1752,7055,2021-09-27 15:07:33.883,-0.2178382873535156,
1753,1753,7059,2021-09-27 15:07:33.887,-0.1468690236409505,
1754,1754,7063,2021-09-27 15:07:33.891,-0.416552225748698,
1755,1755,7067,2021-09-27 15:07:33.895,-0.0623035430908203,
1756,1756,7071,2021-09-27 15:07:33.899,-0.3653049468994141,
1757,1757,7075,2021-09-27 15:07:33.903,-0.2208264668782552,
1758,1758,7079,2021-09-27 15:07:33.907,-0.1346174875895182,
1759,1759,7083,2021-09-27 15:07:33.911,-0.4032548268636068,
1760,1760,7087,2021-09-27 15:07:33.915,-0.0440756479899088,
1761,1761,7091,2021-09-27 15:07:33.919,-0.3437900543212891,
1762,1762,7095,2021-09-27 15:07:33.923,-0.200656255086263,
1763,1763,7099,2021-09-27 15:07:33.927,-0.107425053914388,
1764,1764,7103,2021-09-27 15:07:33.931,-0.3679943084716797,
1765,1765,7107,2021-09-27 15:07:33.935,-0.0243536631266276,
1766,1766,7111,2021-09-27 15:07:33.939,-0.337514877319336,
1767,1767,7115,2021-09-27 15:07:33.943,-0.200656255086263,
1768,1768,7119,2021-09-27 15:07:33.947,-0.1258023579915364,
1769,1769,7123,2021-09-27 15:07:33.951,-0.3771082560221354,
1770,1770,7127,2021-09-27 15:07:33.955,0.0059763590494791,
1771,1771,7131,2021-09-27 15:07:33.959,-0.3031508127848307,
1772,1772,7135,2021-09-27 15:07:33.963,-0.200955073038737,
1773,1773,7139,2021-09-27 15:07:33.967,-0.1395479838053385,
1774,1774,7143,2021-09-27 15:07:33.971,-0.3957843780517578,
1775,1775,7147,2021-09-27 15:07:33.975,-0.0460179646809895,
1776,1776,7151,2021-09-27 15:07:33.979,-0.3759129842122396,
1777,1777,7155,2021-09-27 15:07:33.983,-0.2433872222900391,
1778,1778,7159,2021-09-27 15:07:33.987,-0.1522477467854817,
1779,1779,7163,2021-09-27 15:07:33.991,-0.3866704305013021,
1780,1780,7167,2021-09-27 15:07:33.995,-0.0110562642415364,
1781,1781,7171,2021-09-27 15:07:33.999,-0.3379631042480469,
1782,1782,7175,2021-09-27 15:07:34.003,-0.2380084991455078,
1783,1783,7179,2021-09-27 15:07:34.007,-0.186312993367513,
1784,1784,7183,2021-09-27 15:07:34.011,-0.4299990336100261,
1785,1785,7187,2021-09-27 15:07:34.015,-0.0309276580810546,
1786,1786,7191,2021-09-27 15:07:34.019,-0.3198846181233724,
1787,1787,7195,2021-09-27 15:07:34.023,-0.2018515268961588,
1788,1788,7199,2021-09-27 15:07:34.027,-0.1609134674072266,
1789,1789,7203,2021-09-27 15:07:34.031,-0.4246203104654948,
1790,1790,7207,2021-09-27 15:07:34.035,-0.0436274210611979,
1791,1791,7211,2021-09-27 15:07:34.039,-0.330193837483724,
1792,1792,7215,2021-09-27 15:07:34.043,-0.1981163024902344,
1793,1793,7219,2021-09-27 15:07:34.047,-0.1208718617757161,
1794,1794,7223,2021-09-27 15:07:34.051,-0.38726806640625,
1795,1795,7227,2021-09-27 15:07:34.055,-0.0401910146077474,
1796,1796,7231,2021-09-27 15:07:34.059,-0.3681437174479167,
1797,1797,7235,2021-09-27 15:07:34.063,-0.2465248107910156,
1798,1798,7239,2021-09-27 15:07:34.067,-0.157477060953776,
1799,1799,7243,2021-09-27 15:07:34.071,-0.3697872161865235,
1800,1800,7247,2021-09-27 15:07:34.075,0.0321229298909505,
1801,1801,7251,2021-09-27 15:07:34.079,-0.2802912394205729,
1802,1802,7255,2021-09-27 15:07:34.083,-0.1640510559082031,
1803,1803,7259,2021-09-27 15:07:34.087,-0.1135508219401041,
1804,1804,7263,2021-09-27 15:07:34.091,-0.38726806640625,
1805,1805,7267,2021-09-27 15:07:34.095,-0.035260518391927,
1806,1806,7271,2021-09-27 15:07:34.099,-0.3455829620361328,
1807,1807,7275,2021-09-27 15:07:34.103,-0.2155971527099609,
1808,1808,7279,2021-09-27 15:07:34.107,-0.1452255249023437,
1809,1809,7283,2021-09-27 15:07:34.111,-0.3896586100260417,
1810,1810,7287,2021-09-27 15:07:34.115,-0.0147914886474609,
1811,1811,7291,2021-09-27 15:07:34.119,-0.3176434834798177,
1812,1812,7295,2021-09-27 15:07:34.123,-0.18646240234375,
1813,1813,7299,2021-09-27 15:07:34.127,-0.1244576772054036,
1814,1814,7303,2021-09-27 15:07:34.131,-0.3789011637369792,
1815,1815,7307,2021-09-27 15:07:34.135,-0.0194231669108072,
1816,1816,7311,2021-09-27 15:07:34.139,-0.336767832438151,
1817,1817,7315,2021-09-27 15:07:34.143,-0.2203782399495443,
1818,1818,7319,2021-09-27 15:07:34.147,-0.1437314351399739,
1819,1819,7323,2021-09-27 15:07:34.151,-0.380544662475586,
1820,1820,7327,2021-09-27 15:07:34.155,-0.0195725758870442,
1821,1821,7331,2021-09-27 15:07:34.159,-0.3390089670817057,
1822,1822,7335,2021-09-27 15:07:34.163,-0.2157465616861979,
1823,1823,7339,2021-09-27 15:07:34.167,-0.1488113403320312,
1824,1824,7343,2021-09-27 15:07:34.171,-0.4120699564615886,
1825,1825,7347,2021-09-27 15:07:34.175,-0.0388463338216145,
1826,1826,7351,2021-09-27 15:07:34.179,-0.3292973836263021,
1827,1827,7355,2021-09-27 15:07:34.183,-0.2145512898763021,
1828,1828,7359,2021-09-27 15:07:34.187,-0.1404444376627604,
1829,1829,7363,2021-09-27 15:07:34.191,-0.4008642832438152,
1830,1830,7367,2021-09-27 15:07:34.195,-0.057223637898763,
1831,1831,7371,2021-09-27 15:07:34.199,-0.3563404083251953,
1832,1832,7375,2021-09-27 15:07:34.203,-0.1927375793457031,
1833,1833,7379,2021-09-27 15:07:34.207,-0.1171366373697916,
1834,1834,7383,2021-09-27 15:07:34.211,-0.3844292958577474,
1835,1835,7387,2021-09-27 15:07:34.215,-0.0378004709879557,
1836,1836,7391,2021-09-27 15:07:34.219,-0.3391583760579427,
1837,1837,7395,2021-09-27 15:07:34.223,-0.1981163024902344,
1838,1838,7399,2021-09-27 15:07:34.227,-0.1343186696370442,
1839,1839,7403,2021-09-27 15:07:34.231,-0.3904056549072266,
1840,1840,7407,2021-09-27 15:07:34.235,-0.0279394785563151,
1841,1841,7411,2021-09-27 15:07:34.239,-0.336767832438151,
1842,1842,7415,2021-09-27 15:07:34.243,-0.2139536539713541,
1843,1843,7419,2021-09-27 15:07:34.247,-0.1473172505696614,
1844,1844,7423,2021-09-27 15:07:34.251,-0.3978761037190755,
1845,1845,7427,2021-09-27 15:07:34.255,-0.0264453887939453,
1846,1846,7431,2021-09-27 15:07:34.259,-0.3221257527669271,
1847,1847,7435,2021-09-27 15:07:34.263,-0.201104482014974,
1848,1848,7439,2021-09-27 15:07:34.267,-0.1523971557617187,
1849,1849,7443,2021-09-27 15:07:34.271,-0.4143110911051433,
1850,1850,7447,2021-09-27 15:07:34.275,-0.0551319122314453,
1851,1851,7451,2021-09-27 15:07:34.279,-0.3460311889648438,
1852,1852,7455,2021-09-27 15:07:34.283,-0.1901976267496745,
1853,1853,7459,2021-09-27 15:07:34.287,-0.1023451487223307,
1854,1854,7463,2021-09-27 15:07:34.291,-0.3591791788736979,
1855,1855,7467,2021-09-27 15:07:34.295,-0.0239054361979166,
1856,1856,7471,2021-09-27 15:07:34.299,-0.358730951944987,
1857,1857,7475,2021-09-27 15:07:34.303,-0.2276992797851562,
1858,1858,7479,2021-09-27 15:07:34.307,-0.1283423105875651,
1859,1859,7483,2021-09-27 15:07:34.311,-0.3563404083251953,
1860,1860,7487,2021-09-27 15:07:34.315,0.0104586283365885,
1861,1861,7491,2021-09-27 15:07:34.319,-0.3254127502441407,
1862,1862,7495,2021-09-27 15:07:34.323,-0.2145512898763021,
1863,1863,7499,2021-09-27 15:07:34.327,-0.1500066121419271,
1864,1864,7503,2021-09-27 15:07:34.331,-0.3957843780517578,
1865,1865,7507,2021-09-27 15:07:34.335,-0.0395933787027994,
1866,1866,7511,2021-09-27 15:07:34.339,-0.3529040018717448,
1867,1867,7515,2021-09-27 15:07:34.343,-0.2214241027832031,
1868,1868,7519,2021-09-27 15:07:34.347,-0.1495583852132161,
1869,1869,7523,2021-09-27 15:07:34.351,-0.3974278767903646,
1870,1870,7527,2021-09-27 15:07:34.355,-0.0306288401285807,
1871,1871,7531,2021-09-27 15:07:34.359,-0.330343246459961,
1872,1872,7535,2021-09-27 15:07:34.363,-0.2136548360188802,
1873,1873,7539,2021-09-27 15:07:34.367,-0.1628557840983073,
1874,1874,7543,2021-09-27 15:07:34.371,-0.4071394602457683,
1875,1875,7547,2021-09-27 15:07:34.375,-0.0197219848632812,
1876,1876,7551,2021-09-27 15:07:34.379,-0.3018061319986979,
1877,1877,7555,2021-09-27 15:07:34.383,-0.1810836791992187,
1878,1878,7559,2021-09-27 15:07:34.387,-0.1181825002034505,
1879,1879,7563,2021-09-27 15:07:34.391,-0.3841304779052735,
1880,1880,7567,2021-09-27 15:07:34.395,-0.021066665649414,
1881,1881,7571,2021-09-27 15:07:34.399,-0.3183905283610026,
1882,1882,7575,2021-09-27 15:07:34.403,-0.2099196116129557,
1883,1883,7579,2021-09-27 15:07:34.407,-0.1540406545003255,
1884,1884,7583,2021-09-27 15:07:34.411,-0.4072888692220052,
1885,1885,7587,2021-09-27 15:07:34.415,-0.0513966878255208,
1886,1886,7591,2021-09-27 15:07:34.419,-0.3635120391845703,
1887,1887,7595,2021-09-27 15:07:34.423,-0.215447743733724,
1888,1888,7599,2021-09-27 15:07:34.427,-0.1281929016113281,
1889,1889,7603,2021-09-27 15:07:34.431,-0.3697872161865235,
1890,1890,7607,2021-09-27 15:07:34.435,-0.0135962168375651,
1891,1891,7611,2021-09-27 15:07:34.439,-0.3233210245768229,
1892,1892,7615,2021-09-27 15:07:34.443,-0.193484624226888,
1893,1893,7619,2021-09-27 15:07:34.447,-0.1272964477539062,
1894,1894,7623,2021-09-27 15:07:34.451,-0.373373031616211,
1895,1895,7627,2021-09-27 15:07:34.455,-0.0134468078613281,
1896,1896,7631,2021-09-27 15:07:34.459,-0.3267574310302735,
1897,1897,7635,2021-09-27 15:07:34.463,-0.2155971527099609,
1898,1898,7639,2021-09-27 15:07:34.467,-0.1568794250488281,
1899,1899,7643,2021-09-27 15:07:34.471,-0.4141616821289063,
1900,1900,7647,2021-09-27 15:07:34.475,-0.0561777750651041,
1901,1901,7651,2021-09-27 15:07:34.479,-0.344387690226237,
1902,1902,7655,2021-09-27 15:07:34.483,-0.2043914794921875,
1903,1903,7659,2021-09-27 15:07:34.487,-0.1278940836588541,
1904,1904,7663,2021-09-27 15:07:34.491,-0.4066912333170573,
1905,1905,7667,2021-09-27 15:07:34.495,-0.0687281290690104,
1906,1906,7671,2021-09-27 15:07:34.499,-0.3676954905192057,
1907,1907,7675,2021-09-27 15:07:34.503,-0.2287451426188151,
1908,1908,7679,2021-09-27 15:07:34.507,-0.1344680786132812,
1909,1909,7683,2021-09-27 15:07:34.511,-0.3796482086181641,
1910,1910,7687,2021-09-27 15:07:34.515,-0.0309276580810546,
1911,1911,7691,2021-09-27 15:07:34.519,-0.3424453735351563,
1912,1912,7695,2021-09-27 15:07:34.523,-0.1975186665852865,
1913,1913,7699,2021-09-27 15:07:34.527,-0.1159413655598958,
1914,1914,7703,2021-09-27 15:07:34.531,-0.3524557749430339,
1915,1915,7707,2021-09-27 15:07:34.535,-0.0061257680257161,
1916,1916,7711,2021-09-27 15:07:34.539,-0.336767832438151,
1917,1917,7715,2021-09-27 15:07:34.543,-0.2181371053059896,
1918,1918,7719,2021-09-27 15:07:34.547,-0.1468690236409505,
1919,1919,7723,2021-09-27 15:07:34.551,-0.3845787048339844,
1920,1920,7727,2021-09-27 15:07:34.555,-0.0161361694335937,
1921,1921,7731,2021-09-27 15:07:34.559,-0.2965768178304037,
1922,1922,7735,2021-09-27 15:07:34.563,-0.107126235961914,
1923,1923,7739,2021-09-27 15:07:34.567,0.0298817952473958,
1924,1924,7743,2021-09-27 15:07:34.571,-0.114447275797526,
1925,1925,7747,2021-09-27 15:07:34.575,0.3324349721272787,
1926,1926,7751,2021-09-27 15:07:34.579,0.0349617004394531,
1927,1927,7755,2021-09-27 15:07:34.583,0.0817267100016276,
1928,1928,7759,2021-09-27 15:07:34.587,-0.0234572092692057,
1929,1929,7763,2021-09-27 15:07:34.591,-0.5879243214925131,
1930,1930,7767,2021-09-27 15:07:34.595,-0.6003252665201824,
1931,1931,7771,2021-09-27 15:07:34.599,-1.1038335164388022,
1932,1932,7775,2021-09-27 15:07:34.603,-1.0044765472412112,
1933,1933,7779,2021-09-27 15:07:34.607,-0.767513910929362,
1934,1934,7783,2021-09-27 15:07:34.611,-0.7588481903076173,
1935,1935,7787,2021-09-27 15:07:34.615,-0.1562817891438802,
1936,1936,7791,2021-09-27 15:07:34.619,-0.2498118082682291,
1937,1937,7795,2021-09-27 15:07:34.623,-0.0032869974772135,
1938,1938,7799,2021-09-27 15:07:34.627,0.1104132334391276,
1939,1939,7803,2021-09-27 15:07:34.631,-0.1419385274251302,
1940,1940,7807,2021-09-27 15:07:34.635,0.1852671305338541,
1941,1941,7811,2021-09-27 15:07:34.639,-0.128790537516276,
1942,1942,7815,2021-09-27 15:07:34.643,-0.0633494059244791,
1943,1943,7819,2021-09-27 15:07:34.647,0.2066326141357422,
1944,1944,7823,2021-09-27 15:07:34.651,-0.2472718556722005,
1945,1945,7827,2021-09-27 15:07:34.655,-0.0605106353759765,
1946,1946,7831,2021-09-27 15:07:34.659,-0.2415943145751953,
1947,1947,7835,2021-09-27 15:07:34.663,-0.286715825398763,
1948,1948,7839,2021-09-27 15:07:34.667,-0.0109068552652994,
1949,1949,7843,2021-09-27 15:07:34.671,-0.3493181864420573,
1950,1950,7847,2021-09-27 15:07:34.675,-0.0815773010253906,
1951,1951,7851,2021-09-27 15:07:34.679,-0.265350341796875,
1952,1952,7855,2021-09-27 15:07:34.683,-0.34423828125,
1953,1953,7859,2021-09-27 15:07:34.687,-0.0540860493977864,
1954,1954,7863,2021-09-27 15:07:34.691,-0.3766600290934245,
1955,1955,7867,2021-09-27 15:07:34.695,-0.0823243459065755,
1956,1956,7871,2021-09-27 15:07:34.699,-0.222021738688151,
1957,1957,7875,2021-09-27 15:07:34.703,-0.3457323710123698,
1958,1958,7879,2021-09-27 15:07:34.707,-0.099954605102539,
1959,1959,7883,2021-09-27 15:07:34.711,-0.430596669514974,
1960,1960,7887,2021-09-27 15:07:34.715,-0.1189295450846354,
1961,1961,7891,2021-09-27 15:07:34.719,-0.258477528889974,
1962,1962,7895,2021-09-27 15:07:34.723,-0.3358713785807292,
1963,1963,7899,2021-09-27 15:07:34.727,-0.0669352213541666,
1964,1964,7903,2021-09-27 15:07:34.731,-0.4005654652913412,
1965,1965,7907,2021-09-27 15:07:34.735,-0.1051839192708333,
1966,1966,7911,2021-09-27 15:07:34.739,-0.2504094441731771,
1967,1967,7915,2021-09-27 15:07:34.743,-0.3343772888183594,
1968,1968,7919,2021-09-27 15:07:34.747,-0.0549825032552083,
1969,1969,7923,2021-09-27 15:07:34.751,-0.3759129842122396,
1970,1970,7927,2021-09-27 15:07:34.755,-0.0727621714274088,
1971,1971,7931,2021-09-27 15:07:34.759,-0.2339744567871094,
1972,1972,7935,2021-09-27 15:07:34.763,-0.3257115681966146,
1973,1973,7939,2021-09-27 15:07:34.767,-0.0528907775878906,
1974,1974,7943,2021-09-27 15:07:34.771,-0.3778553009033203,
1975,1975,7947,2021-09-27 15:07:34.775,-0.0954723358154297,
1976,1976,7951,2021-09-27 15:07:34.779,-0.2607186635335287,
1977,1977,7955,2021-09-27 15:07:34.783,-0.3352737426757813,
1978,1978,7959,2021-09-27 15:07:34.787,-0.0543848673502604,
1979,1979,7963,2021-09-27 15:07:34.791,-0.3868198394775391,
1980,1980,7967,2021-09-27 15:07:34.795,-0.099954605102539,
1981,1981,7971,2021-09-27 15:07:34.799,-0.2569834391276042,
1982,1982,7975,2021-09-27 15:07:34.803,-0.3264586130777995,
1983,1983,7979,2021-09-27 15:07:34.807,-0.0313758850097656,
1984,1984,7983,2021-09-27 15:07:34.811,-0.3535016377766927,
1985,1985,7987,2021-09-27 15:07:34.815,-0.0767962137858073,
1986,1986,7991,2021-09-27 15:07:34.819,-0.2517541249593099,
1987,1987,7995,2021-09-27 15:07:34.823,-0.3313891092936198,
1988,1988,7999,2021-09-27 15:07:34.827,-0.0584189097086588,
1989,1989,8003,2021-09-27 15:07:34.831,-0.3908538818359375,
1990,1990,8007,2021-09-27 15:07:34.835,-0.0835196177164713,
1991,1991,8011,2021-09-27 15:07:34.839,-0.2275498708089193,
1992,1992,8015,2021-09-27 15:07:34.843,-0.3390089670817057,
1993,1993,8019,2021-09-27 15:07:34.847,-0.0844160715738932,
1994,1994,8023,2021-09-27 15:07:34.851,-0.4295508066813152,
1995,1995,8027,2021-09-27 15:07:34.855,-0.1332728068033854,
1996,1996,8031,2021-09-27 15:07:34.859,-0.2756595611572266,
1997,1997,8035,2021-09-27 15:07:34.863,-0.3394571940104167,
1998,1998,8039,2021-09-27 15:07:34.867,-0.0594647725423177,
1999,1999,8043,2021-09-27 15:07:34.871,-0.394589106241862,
2000,2000,8047,2021-09-27 15:07:34.875,-0.1243082682291666,
2001,2001,8051,2021-09-27 15:07:34.879,-0.2822335561116537,
2002,2002,8055,2021-09-27 15:07:34.883,-0.3342278798421224,
2003,2003,8059,2021-09-27 15:07:34.887,-0.0478108723958333,
2004,2004,8063,2021-09-27 15:07:34.891,-0.3645579020182292,
2005,2005,8067,2021-09-27 15:07:34.895,-0.0593153635660807,
2006,2006,8071,2021-09-27 15:07:34.899,-0.2106666564941406,
2007,2007,8075,2021-09-27 15:07:34.903,-0.3122647603352865,
2008,2008,8079,2021-09-27 15:07:34.907,-0.078290303548177,
2009,2009,8083,2021-09-27 15:07:34.911,-0.4183451334635417,
2010,2010,8087,2021-09-27 15:07:34.915,-0.0962193806966145,
2011,2011,8091,2021-09-27 15:07:34.919,-0.2311356862386068,
2012,2012,8095,2021-09-27 15:07:34.923,-0.3046449025472005,
2013,2013,8099,2021-09-27 15:07:34.927,-0.0252501169840494,
2014,2014,8103,2021-09-27 15:07:34.931,-0.3457323710123698,
2015,2015,8107,2021-09-27 15:07:34.935,-0.0658893585205078,
2016,2016,8111,2021-09-27 15:07:34.939,-0.2519035339355469,
2017,2017,8115,2021-09-27 15:07:34.943,-0.337066650390625,
2018,2018,8119,2021-09-27 15:07:34.947,-0.0555801391601562,
2019,2019,8123,2021-09-27 15:07:34.951,-0.3709824879964193,
2020,2020,8127,2021-09-27 15:07:34.955,-0.0739574432373047,
2021,2021,8131,2021-09-27 15:07:34.959,-0.236962636311849,
2022,2022,8135,2021-09-27 15:07:34.963,-0.3254127502441407,
2023,2023,8139,2021-09-27 15:07:34.967,-0.0620047251383463,
2024,2024,8143,2021-09-27 15:07:34.971,-0.3741200764973958,
2025,2025,8147,2021-09-27 15:07:34.975,-0.0679810841878255,
2026,2026,8151,2021-09-27 15:07:34.979,-0.2215735117594401,
2027,2027,8155,2021-09-27 15:07:34.983,-0.3189881642659505,
2028,2028,8159,2021-09-27 15:07:34.987,-0.071268081665039,
2029,2029,8163,2021-09-27 15:07:34.991,-0.4077370961507162,
2030,2030,8167,2021-09-27 15:07:34.995,-0.1086203257242838,
2031,2031,8171,2021-09-27 15:07:34.999,-0.2532482147216797,
2032,2032,8175,2021-09-27 15:07:35.003,-0.3213787078857422,
2033,2033,8179,2021-09-27 15:07:35.007,-0.042730967203776,
2034,2034,8183,2021-09-27 15:07:35.011,-0.3786023457845052,
2035,2035,8187,2021-09-27 15:07:35.015,-0.0996557871500651,
2036,2036,8191,2021-09-27 15:07:35.019,-0.272372563680013,
2037,2037,8195,2021-09-27 15:07:35.023,-0.3593285878499349,
2038,2038,8199,2021-09-27 15:07:35.027,-0.0578212738037109,
2039,2039,8203,2021-09-27 15:07:35.031,-0.3605238596598307,
2040,2040,8207,2021-09-27 15:07:35.035,-0.0646940867106119,
2041,2041,8211,2021-09-27 15:07:35.039,-0.2380084991455078,
2042,2042,8215,2021-09-27 15:07:35.043,-0.3254127502441407,
2043,2043,8219,2021-09-27 15:07:35.047,-0.057074228922526,
2044,2044,8223,2021-09-27 15:07:35.051,-0.3930950164794922,
2045,2045,8227,2021-09-27 15:07:35.055,-0.1010004679361979,
2046,2046,8231,2021-09-27 15:07:35.059,-0.2629597981770833,
