,Unnamed: 0,Tick Time,RTC Time,ECG,marker
0,0,36,2021-09-24 17:11:11.991,0.215298334757487,
1,1,40,2021-09-24 17:11:11.995,0.3266080220540365,
2,2,44,2021-09-24 17:11:11.999,0.279394785563151,
3,3,48,2021-09-24 17:11:12.003,0.1169872283935547,
4,4,52,2021-09-24 17:11:12.007,-0.2209758758544922,
5,5,56,2021-09-24 17:11:12.011,-0.7026704152425131,
6,6,60,2021-09-24 17:11:12.015,-1.1722628275553386,
7,7,64,2021-09-24 17:11:12.019,-1.4441871643066408,
8,8,68,2021-09-24 17:11:12.023,-1.30673090616862,
9,9,72,2021-09-24 17:11:12.027,-0.8986949920654298,
10,10,76,2021-09-24 17:11:12.031,-0.3962326049804688,
11,11,80,2021-09-24 17:11:12.035,0.0346628824869791,
12,12,84,2021-09-24 17:11:12.039,0.2460765838623047,
13,13,88,2021-09-24 17:11:12.043,0.322573979695638,
14,14,92,2021-09-24 17:11:12.047,0.2683385213216146,
15,15,96,2021-09-24 17:11:12.051,0.1852671305338541,
16,16,100,2021-09-24 17:11:12.055,0.092932383219401,
17,17,104,2021-09-24 17:11:12.059,-0.0146420796712239,
18,18,108,2021-09-24 17:11:12.063,-0.0651423136393229,
19,19,112,2021-09-24 17:11:12.067,-0.1207224527994791,
20,20,116,2021-09-24 17:11:12.071,-0.1710732777913411,
21,21,120,2021-09-24 17:11:12.075,-0.1919905344645182,
22,22,124,2021-09-24 17:11:12.079,-0.2478694915771484,
23,23,128,2021-09-24 17:11:12.083,-0.2625115712483724,
24,24,132,2021-09-24 17:11:12.087,-0.2776018778483073,
25,25,136,2021-09-24 17:11:12.091,-0.2732690175374349,
26,26,140,2021-09-24 17:11:12.095,-0.2333768208821615,
27,27,144,2021-09-24 17:11:12.099,-0.2411460876464844,
28,28,148,2021-09-24 17:11:12.103,-0.2287451426188151,
29,29,152,2021-09-24 17:11:12.107,-0.244134267171224,
30,30,156,2021-09-24 17:11:12.111,-0.2563858032226563,
31,31,160,2021-09-24 17:11:12.115,-0.2411460876464844,
32,32,164,2021-09-24 17:11:12.119,-0.2589257558186849,
33,33,168,2021-09-24 17:11:12.123,-0.2448813120524088,
34,34,172,2021-09-24 17:11:12.127,-0.2502600351969401,
35,35,176,2021-09-24 17:11:12.131,-0.2481683095296224,
36,36,180,2021-09-24 17:11:12.135,-0.2173900604248047,
37,37,184,2021-09-24 17:11:12.139,-0.2155971527099609,
38,38,188,2021-09-24 17:11:12.143,-0.1872094472249349,
39,39,192,2021-09-24 17:11:12.147,-0.1985645294189453,
40,40,196,2021-09-24 17:11:12.151,-0.2130572001139323,
41,41,200,2021-09-24 17:11:12.155,-0.2051385243733724,
42,42,204,2021-09-24 17:11:12.159,-0.2272510528564453,
43,43,208,2021-09-24 17:11:12.163,-0.2130572001139323,
44,44,212,2021-09-24 17:11:12.167,-0.2193323771158854,
45,45,216,2021-09-24 17:11:12.171,-0.2259063720703125,
46,46,220,2021-09-24 17:11:12.175,-0.2142524719238281,
47,47,224,2021-09-24 17:11:12.179,-0.2348709106445312,
48,48,228,2021-09-24 17:11:12.183,-0.2157465616861979,
49,49,232,2021-09-24 17:11:12.187,-0.2184359232584635,
50,50,236,2021-09-24 17:11:12.191,-0.2239640553792318,
51,51,240,2021-09-24 17:11:12.195,-0.2067820231119791,
52,52,244,2021-09-24 17:11:12.199,-0.229641596476237,
53,53,248,2021-09-24 17:11:12.203,-0.2147006988525391,
54,54,252,2021-09-24 17:11:12.207,-0.2318827311197916,
55,55,256,2021-09-24 17:11:12.211,-0.2408472696940104,
56,56,260,2021-09-24 17:11:12.215,-0.2227687835693359,
57,57,264,2021-09-24 17:11:12.219,-0.2450307210286458,
58,58,268,2021-09-24 17:11:12.223,-0.2321815490722656,
59,59,272,2021-09-24 17:11:12.227,-0.2377096811930338,
60,60,276,2021-09-24 17:11:12.231,-0.2418931325276693,
61,61,280,2021-09-24 17:11:12.235,-0.2279980977376302,
62,62,284,2021-09-24 17:11:12.239,-0.2640056610107422,
63,63,288,2021-09-24 17:11:12.243,-0.2501106262207032,
64,64,292,2021-09-24 17:11:12.247,-0.243686040242513,
65,65,296,2021-09-24 17:11:12.251,-0.2399508158365885,
66,66,300,2021-09-24 17:11:12.255,-0.2185853322347005,
67,67,304,2021-09-24 17:11:12.259,-0.251156489054362,
68,68,308,2021-09-24 17:11:12.263,-0.2399508158365885,
69,69,312,2021-09-24 17:11:12.267,-0.2448813120524088,
70,70,316,2021-09-24 17:11:12.271,-0.2547423044840495,
71,71,320,2021-09-24 17:11:12.275,-0.2354685465494791,
72,72,324,2021-09-24 17:11:12.279,-0.258626937866211,
73,73,328,2021-09-24 17:11:12.283,-0.2444330851236979,
74,74,332,2021-09-24 17:11:12.287,-0.2430884043375651,
75,75,336,2021-09-24 17:11:12.291,-0.2403990427652995,
76,76,340,2021-09-24 17:11:12.295,-0.2036444346110026,
77,77,344,2021-09-24 17:11:12.299,-0.2054373423258463,
78,78,348,2021-09-24 17:11:12.303,-0.1798884073893229,
79,79,352,2021-09-24 17:11:12.307,-0.1745096842447916,
80,80,356,2021-09-24 17:11:12.311,-0.1807848612467448,
81,81,360,2021-09-24 17:11:12.315,-0.171820322672526,
82,82,364,2021-09-24 17:11:12.319,-0.1991621653238932,
83,83,368,2021-09-24 17:11:12.323,-0.1897493998209635,
84,84,372,2021-09-24 17:11:12.327,-0.1931858062744141,
85,85,376,2021-09-24 17:11:12.331,-0.193335215250651,
86,86,380,2021-09-24 17:11:12.335,-0.171969731648763,
87,87,384,2021-09-24 17:11:12.339,-0.1964728037516276,
88,88,388,2021-09-24 17:11:12.343,-0.1976680755615234,
89,89,392,2021-09-24 17:11:12.347,-0.2136548360188802,
90,90,396,2021-09-24 17:11:12.351,-0.2268028259277344,
91,91,400,2021-09-24 17:11:12.355,-0.2061843872070312,
92,92,404,2021-09-24 17:11:12.359,-0.2305380503336588,
93,93,408,2021-09-24 17:11:12.363,-0.2214241027832031,
94,94,412,2021-09-24 17:11:12.367,-0.2239640553792318,
95,95,416,2021-09-24 17:11:12.371,-0.2338250478108724,
96,96,420,2021-09-24 17:11:12.375,-0.2232170104980469,
97,97,424,2021-09-24 17:11:12.379,-0.2519035339355469,
98,98,428,2021-09-24 17:11:12.383,-0.2315839131673177,
99,99,432,2021-09-24 17:11:12.387,-0.2284463246663411,
100,100,436,2021-09-24 17:11:12.391,-0.2274004618326823,
101,101,440,2021-09-24 17:11:12.395,-0.2099196116129557,
102,102,444,2021-09-24 17:11:12.399,-0.2324803670247396,
103,103,448,2021-09-24 17:11:12.403,-0.2206770579020182,
104,104,452,2021-09-24 17:11:12.407,-0.2303886413574219,
105,105,456,2021-09-24 17:11:12.411,-0.2380084991455078,
106,106,460,2021-09-24 17:11:12.415,-0.2205276489257812,
107,107,464,2021-09-24 17:11:12.419,-0.236365000406901,
108,108,468,2021-09-24 17:11:12.423,-0.2130572001139323,
109,109,472,2021-09-24 17:11:12.427,-0.2175394694010416,
110,110,476,2021-09-24 17:11:12.431,-0.2250099182128906,
111,111,480,2021-09-24 17:11:12.435,-0.2087243398030599,
112,112,484,2021-09-24 17:11:12.439,-0.229193369547526,
113,113,488,2021-09-24 17:11:12.443,-0.2102184295654297,
114,114,492,2021-09-24 17:11:12.447,-0.2093219757080078,
115,115,496,2021-09-24 17:11:12.451,-0.2133560180664062,
116,116,500,2021-09-24 17:11:12.455,-0.1943810780843099,
117,117,504,2021-09-24 17:11:12.459,-0.2199300130208333,
118,118,508,2021-09-24 17:11:12.463,-0.2164936065673828,
119,119,512,2021-09-24 17:11:12.467,-0.2300898234049479,
120,120,516,2021-09-24 17:11:12.471,-0.2339744567871094,
121,121,520,2021-09-24 17:11:12.475,-0.2042420705159505,
122,122,524,2021-09-24 17:11:12.479,-0.2199300130208333,
123,123,528,2021-09-24 17:11:12.483,-0.2097702026367187,
124,124,532,2021-09-24 17:11:12.487,-0.222469965616862,
125,125,536,2021-09-24 17:11:12.491,-0.2375602722167969,
126,126,540,2021-09-24 17:11:12.495,-0.2179876963297526,
127,127,544,2021-09-24 17:11:12.499,-0.2389049530029297,
128,128,548,2021-09-24 17:11:12.503,-0.2236652374267578,
129,129,552,2021-09-24 17:11:12.507,-0.2205276489257812,
130,130,556,2021-09-24 17:11:12.511,-0.2227687835693359,
131,131,560,2021-09-24 17:11:12.515,-0.2099196116129557,
132,132,564,2021-09-24 17:11:12.519,-0.2420425415039062,
133,133,568,2021-09-24 17:11:12.523,-0.2253087361653646,
134,134,572,2021-09-24 17:11:12.527,-0.2238146464029948,
135,135,576,2021-09-24 17:11:12.531,-0.2127583821614583,
136,136,580,2021-09-24 17:11:12.535,-0.1804860432942708,
137,137,584,2021-09-24 17:11:12.539,-0.1946798960367838,
138,138,588,2021-09-24 17:11:12.543,-0.1858647664388021,
139,139,592,2021-09-24 17:11:12.547,-0.1970704396565755,
140,140,596,2021-09-24 17:11:12.551,-0.2206770579020182,
141,141,600,2021-09-24 17:11:12.555,-0.2135054270426432,
142,142,604,2021-09-24 17:11:12.559,-0.2374108632405599,
143,143,608,2021-09-24 17:11:12.563,-0.2256075541178385,
144,144,612,2021-09-24 17:11:12.567,-0.2345720926920573,
145,145,616,2021-09-24 17:11:12.571,-0.2519035339355469,
146,146,620,2021-09-24 17:11:12.575,-0.2411460876464844,
147,147,624,2021-09-24 17:11:12.579,-0.2613162994384766,
148,148,628,2021-09-24 17:11:12.583,-0.2442836761474609,
149,149,632,2021-09-24 17:11:12.587,-0.2389049530029297,
150,150,636,2021-09-24 17:11:12.591,-0.2405484517415365,
151,151,640,2021-09-24 17:11:12.595,-0.2250099182128906,
152,152,644,2021-09-24 17:11:12.599,-0.2459271748860677,
153,153,648,2021-09-24 17:11:12.603,-0.2129077911376953,
154,154,652,2021-09-24 17:11:12.607,-0.2054373423258463,
155,155,656,2021-09-24 17:11:12.611,-0.2045408884684245,
156,156,660,2021-09-24 17:11:12.615,-0.1831754048665364,
157,157,664,2021-09-24 17:11:12.619,-0.2046902974446615,
158,158,668,2021-09-24 17:11:12.623,-0.1945304870605469,
159,159,672,2021-09-24 17:11:12.627,-0.2027479807535807,
160,160,676,2021-09-24 17:11:12.631,-0.2155971527099609,
161,161,680,2021-09-24 17:11:12.635,-0.2034950256347656,
162,162,684,2021-09-24 17:11:12.639,-0.2430884043375651,
163,163,688,2021-09-24 17:11:12.643,-0.257879892985026,
164,164,692,2021-09-24 17:11:12.647,-0.2666950225830078,
165,165,696,2021-09-24 17:11:12.651,-0.214850107828776,
166,166,700,2021-09-24 17:11:12.655,-0.0682799021402994,
167,167,704,2021-09-24 17:11:12.659,0.1081720987955729,
168,168,708,2021-09-24 17:11:12.663,0.3033002217610677,
169,169,712,2021-09-24 17:11:12.667,0.3794987996419271,
170,170,716,2021-09-24 17:11:12.671,0.2622127532958985,
171,171,720,2021-09-24 17:11:12.675,0.0155385335286458,
172,172,724,2021-09-24 17:11:12.679,-0.4286543528238933,
173,173,728,2021-09-24 17:11:12.683,-0.926485061645508,
174,174,732,2021-09-24 17:11:12.687,-1.357231140136719,
175,175,736,2021-09-24 17:11:12.691,-1.5305455525716147,
176,176,740,2021-09-24 17:11:12.695,-1.2822278340657554,
177,177,744,2021-09-24 17:11:12.699,-0.8015791575113933,
178,178,748,2021-09-24 17:11:12.703,-0.2493635813395182,
179,179,752,2021-09-24 17:11:12.707,0.1624075571695963,
180,180,756,2021-09-24 17:11:12.711,0.3542486826578776,
181,181,760,2021-09-24 17:11:12.715,0.3968302408854167,
182,182,764,2021-09-24 17:11:12.719,0.2982203165690104,
183,183,768,2021-09-24 17:11:12.723,0.1981163024902344,
184,184,772,2021-09-24 17:11:12.727,0.085461934407552,
185,185,776,2021-09-24 17:11:12.731,-0.0191243489583333,
186,186,780,2021-09-24 17:11:12.735,-0.0682799021402994,
187,187,784,2021-09-24 17:11:12.739,-0.1352151234944661,
188,188,788,2021-09-24 17:11:12.743,-0.1628557840983073,
189,189,792,2021-09-24 17:11:12.747,-0.1991621653238932,
190,190,796,2021-09-24 17:11:12.751,-0.2294921875,
191,191,800,2021-09-24 17:11:12.755,-0.2287451426188151,
192,192,804,2021-09-24 17:11:12.759,-0.265798568725586,
193,193,808,2021-09-24 17:11:12.763,-0.2692349751790365,
194,194,812,2021-09-24 17:11:12.767,-0.2738666534423828,
195,195,816,2021-09-24 17:11:12.771,-0.2758089701334635,
196,196,820,2021-09-24 17:11:12.775,-0.2547423044840495,
197,197,824,2021-09-24 17:11:12.779,-0.2777512868245443,
198,198,828,2021-09-24 17:11:12.783,-0.2560869852701823,
199,199,832,2021-09-24 17:11:12.787,-0.2475706736246745,
200,200,836,2021-09-24 17:11:12.791,-0.2423413594563802,
201,201,840,2021-09-24 17:11:12.795,-0.2136548360188802,
202,202,844,2021-09-24 17:11:12.799,-0.2274004618326823,
203,203,848,2021-09-24 17:11:12.803,-0.2139536539713541,
204,204,852,2021-09-24 17:11:12.807,-0.2323309580485026,
205,205,856,2021-09-24 17:11:12.811,-0.265499750773112,
206,206,860,2021-09-24 17:11:12.815,-0.2705796559651693,
207,207,864,2021-09-24 17:11:12.819,-0.2898534138997396,
208,208,868,2021-09-24 17:11:12.823,-0.2536964416503907,
209,209,872,2021-09-24 17:11:12.827,-0.2347215016682943,
210,210,876,2021-09-24 17:11:12.831,-0.2170912424723307,
211,211,880,2021-09-24 17:11:12.835,-0.1827271779378255,
212,212,884,2021-09-24 17:11:12.839,-0.2030467987060547,
213,213,888,2021-09-24 17:11:12.843,-0.1845200856526692,
214,214,892,2021-09-24 17:11:12.847,-0.1834742228190104,
215,215,896,2021-09-24 17:11:12.851,-0.1894505818684896,
216,216,900,2021-09-24 17:11:12.855,-0.172119140625,
217,217,904,2021-09-24 17:11:12.859,-0.2052879333496094,
218,218,908,2021-09-24 17:11:12.863,-0.1967716217041016,
219,219,912,2021-09-24 17:11:12.867,-0.2048397064208984,
220,220,916,2021-09-24 17:11:12.871,-0.2155971527099609,
221,221,920,2021-09-24 17:11:12.875,-0.1993115743001302,
222,222,924,2021-09-24 17:11:12.879,-0.2378590901692708,
223,223,928,2021-09-24 17:11:12.883,-0.229641596476237,
224,224,932,2021-09-24 17:11:12.887,-0.2453295389811198,
225,225,936,2021-09-24 17:11:12.891,-0.2541446685791016,
226,226,940,2021-09-24 17:11:12.895,-0.2323309580485026,
227,227,944,2021-09-24 17:11:12.899,-0.2577304840087891,
228,228,948,2021-09-24 17:11:12.903,-0.2386061350504557,
229,229,952,2021-09-24 17:11:12.907,-0.2417437235514323,
230,230,956,2021-09-24 17:11:12.911,-0.2520529429117839,
231,231,960,2021-09-24 17:11:12.915,-0.2474212646484375,
232,232,964,2021-09-24 17:11:12.919,-0.2740160624186198,
233,233,968,2021-09-24 17:11:12.923,-0.251305898030599,
234,234,972,2021-09-24 17:11:12.927,-0.251455307006836,
235,235,976,2021-09-24 17:11:12.931,-0.2527999877929688,
236,236,980,2021-09-24 17:11:12.935,-0.2320321400960286,
237,237,984,2021-09-24 17:11:12.939,-0.2544434865315755,
238,238,988,2021-09-24 17:11:12.943,-0.2463754018147786,
239,239,992,2021-09-24 17:11:12.947,-0.2662467956542969,
240,240,996,2021-09-24 17:11:12.951,-0.2710278828938802,
241,241,1000,2021-09-24 17:11:12.955,-0.2386061350504557,
242,242,1004,2021-09-24 17:11:12.959,-0.2389049530029297,
243,243,1008,2021-09-24 17:11:12.963,-0.193634033203125,
244,244,1012,2021-09-24 17:11:12.967,-0.179141362508138,
245,245,1016,2021-09-24 17:11:12.971,-0.1797389984130859,
246,246,1020,2021-09-24 17:11:12.975,-0.1625569661458333,
247,247,1024,2021-09-24 17:11:12.979,-0.1931858062744141,
248,248,1028,2021-09-24 17:11:12.983,-0.1827271779378255,
249,249,1032,2021-09-24 17:11:12.987,-0.1842212677001953,
250,250,1036,2021-09-24 17:11:12.991,-0.2021503448486328,
251,251,1040,2021-09-24 17:11:12.995,-0.1966222127278646,
252,252,1044,2021-09-24 17:11:12.999,-0.2169418334960937,
253,253,1048,2021-09-24 17:11:13.003,-0.1875082651774088,
254,254,1052,2021-09-24 17:11:13.007,-0.1819801330566406,
255,255,1056,2021-09-24 17:11:13.011,-0.1919905344645182,
256,256,1060,2021-09-24 17:11:13.015,-0.1851177215576172,
257,257,1064,2021-09-24 17:11:13.019,-0.2212746938069661,
258,258,1068,2021-09-24 17:11:13.023,-0.2097702026367187,
259,259,1072,2021-09-24 17:11:13.027,-0.222021738688151,
260,260,1076,2021-09-24 17:11:13.031,-0.2392037709554036,
261,261,1080,2021-09-24 17:11:13.035,-0.2191829681396484,
262,262,1084,2021-09-24 17:11:13.039,-0.2359167734781901,
263,263,1088,2021-09-24 17:11:13.043,-0.2090231577555338,
264,264,1092,2021-09-24 17:11:13.047,-0.1999092102050781,
265,265,1096,2021-09-24 17:11:13.051,-0.2111148834228516,
266,266,1100,2021-09-24 17:11:13.055,-0.2123101552327474,
267,267,1104,2021-09-24 17:11:13.059,-0.2560869852701823,
268,268,1108,2021-09-24 17:11:13.063,-0.2430884043375651,
269,269,1112,2021-09-24 17:11:13.067,-0.2269522349039713,
270,270,1116,2021-09-24 17:11:13.071,-0.2381579081217448,
271,271,1120,2021-09-24 17:11:13.075,-0.2193323771158854,
272,272,1124,2021-09-24 17:11:13.079,-0.236514409383138,
273,273,1128,2021-09-24 17:11:13.083,-0.2320321400960286,
274,274,1132,2021-09-24 17:11:13.087,-0.2253087361653646,
275,275,1136,2021-09-24 17:11:13.091,-0.2448813120524088,
276,276,1140,2021-09-24 17:11:13.095,-0.2279980977376302,
277,277,1144,2021-09-24 17:11:13.099,-0.229342778523763,
278,278,1148,2021-09-24 17:11:13.103,-0.2048397064208984,
279,279,1152,2021-09-24 17:11:13.107,-0.18646240234375,
280,280,1156,2021-09-24 17:11:13.111,-0.2085749308268229,
281,281,1160,2021-09-24 17:11:13.115,-0.2037938435872396,
282,282,1164,2021-09-24 17:11:13.119,-0.2381579081217448,
283,283,1168,2021-09-24 17:11:13.123,-0.2356179555257161,
284,284,1172,2021-09-24 17:11:13.127,-0.2167924245198568,
285,285,1176,2021-09-24 17:11:13.131,-0.2269522349039713,
286,286,1180,2021-09-24 17:11:13.135,-0.1946798960367838,
287,287,1184,2021-09-24 17:11:13.139,-0.2218723297119141,
288,288,1188,2021-09-24 17:11:13.143,-0.2230676015218099,
289,289,1192,2021-09-24 17:11:13.147,-0.2063337961832682,
290,290,1196,2021-09-24 17:11:13.151,-0.2138042449951172,
291,291,1200,2021-09-24 17:11:13.155,-0.193484624226888,
292,292,1204,2021-09-24 17:11:13.159,-0.2129077911376953,
293,293,1208,2021-09-24 17:11:13.163,-0.2250099182128906,
294,294,1212,2021-09-24 17:11:13.167,-0.2263545989990234,
295,295,1216,2021-09-24 17:11:13.171,-0.2415943145751953,
296,296,1220,2021-09-24 17:11:13.175,-0.2084255218505859,
297,297,1224,2021-09-24 17:11:13.179,-0.2157465616861979,
298,298,1228,2021-09-24 17:11:13.183,-0.2087243398030599,
299,299,1232,2021-09-24 17:11:13.187,-0.2045408884684245,
300,300,1236,2021-09-24 17:11:13.191,-0.2323309580485026,
301,301,1240,2021-09-24 17:11:13.195,-0.2136548360188802,
302,302,1244,2021-09-24 17:11:13.199,-0.2318827311197916,
303,303,1248,2021-09-24 17:11:13.203,-0.2350203196207682,
304,304,1252,2021-09-24 17:11:13.207,-0.2333768208821615,
305,305,1256,2021-09-24 17:11:13.211,-0.2611668904622396,
306,306,1260,2021-09-24 17:11:13.215,-0.2535470326741537,
307,307,1264,2021-09-24 17:11:13.219,-0.2749125162760417,
308,308,1268,2021-09-24 17:11:13.223,-0.2527999877929688,
309,309,1272,2021-09-24 17:11:13.227,-0.2205276489257812,
310,310,1276,2021-09-24 17:11:13.231,-0.2238146464029948,
311,311,1280,2021-09-24 17:11:13.235,-0.1895999908447266,
312,312,1284,2021-09-24 17:11:13.239,-0.1891517639160156,
313,313,1288,2021-09-24 17:11:13.243,-0.1858647664388021,
314,314,1292,2021-09-24 17:11:13.247,-0.1857153574625651,
315,315,1296,2021-09-24 17:11:13.251,-0.2185853322347005,
316,316,1300,2021-09-24 17:11:13.255,-0.2142524719238281,
317,317,1304,2021-09-24 17:11:13.259,-0.2423413594563802,
318,318,1308,2021-09-24 17:11:13.263,-0.2354685465494791,
319,319,1312,2021-09-24 17:11:13.267,-0.2229181925455729,
320,320,1316,2021-09-24 17:11:13.271,-0.2396519978841146,
321,321,1320,2021-09-24 17:11:13.275,-0.2251593271891276,
322,322,1324,2021-09-24 17:11:13.279,-0.265798568725586,
323,323,1328,2021-09-24 17:11:13.283,-0.2640056610107422,
324,324,1332,2021-09-24 17:11:13.287,-0.2114137013753255,
325,325,1336,2021-09-24 17:11:13.291,-0.1401456197102864,
326,326,1340,2021-09-24 17:11:13.295,0.0418345133463541,
327,327,1344,2021-09-24 17:11:13.299,0.2191829681396484,
328,328,1348,2021-09-24 17:11:13.303,0.3935432434082032,
329,329,1352,2021-09-24 17:11:13.307,0.4421011606852214,
330,330,1356,2021-09-24 17:11:13.311,0.2415943145751953,
331,331,1360,2021-09-24 17:11:13.315,-0.1051839192708333,
332,332,1364,2021-09-24 17:11:13.319,-0.6700992584228517,
333,333,1368,2021-09-24 17:11:13.323,-1.2530930836995444,
334,334,1372,2021-09-24 17:11:13.327,-1.651865641276042,
335,335,1376,2021-09-24 17:11:13.331,-1.6857814788818362,
336,336,1380,2021-09-24 17:11:13.335,-1.2242571512858074,
337,337,1384,2021-09-24 17:11:13.339,-0.5992794036865235,
338,338,1388,2021-09-24 17:11:13.343,-0.028238296508789,
339,339,1392,2021-09-24 17:11:13.347,0.358880360921224,
340,340,1396,2021-09-24 17:11:13.351,0.4869238535563152,
341,341,1400,2021-09-24 17:11:13.355,0.4636160532633464,
342,342,1404,2021-09-24 17:11:13.359,0.337365468343099,
343,343,1408,2021-09-24 17:11:13.363,0.215298334757487,
344,344,1412,2021-09-24 17:11:13.367,0.1098155975341797,
345,345,1416,2021-09-24 17:11:13.371,-0.0044822692871093,
346,346,1420,2021-09-24 17:11:13.375,-0.0720151265462239,
347,347,1424,2021-09-24 17:11:13.379,-0.1485125223795573,
348,348,1428,2021-09-24 17:11:13.383,-0.1990127563476562,
349,349,1432,2021-09-24 17:11:13.387,-0.2308368682861328,
350,350,1436,2021-09-24 17:11:13.391,-0.2705796559651693,
351,351,1440,2021-09-24 17:11:13.395,-0.2523517608642578,
352,352,1444,2021-09-24 17:11:13.399,-0.2607186635335287,
353,353,1448,2021-09-24 17:11:13.403,-0.2496623992919922,
354,354,1452,2021-09-24 17:11:13.407,-0.2493635813395182,
355,355,1456,2021-09-24 17:11:13.411,-0.2850723266601563,
356,356,1460,2021-09-24 17:11:13.415,-0.2764066060384115,
357,357,1464,2021-09-24 17:11:13.419,-0.294036865234375,
358,358,1468,2021-09-24 17:11:13.423,-0.279394785563151,
359,359,1472,2021-09-24 17:11:13.427,-0.2477200826009115,
360,360,1476,2021-09-24 17:11:13.431,-0.2489153544108073,
361,361,1480,2021-09-24 17:11:13.435,-0.2276992797851562,
362,362,1484,2021-09-24 17:11:13.439,-0.2489153544108073,
363,363,1488,2021-09-24 17:11:13.443,-0.2420425415039062,
364,364,1492,2021-09-24 17:11:13.447,-0.2167924245198568,
365,365,1496,2021-09-24 17:11:13.451,-0.2324803670247396,
366,366,1500,2021-09-24 17:11:13.455,-0.2199300130208333,
367,367,1504,2021-09-24 17:11:13.459,-0.2433872222900391,
368,368,1508,2021-09-24 17:11:13.463,-0.2423413594563802,
369,369,1512,2021-09-24 17:11:13.467,-0.229193369547526,
370,370,1516,2021-09-24 17:11:13.471,-0.2272510528564453,
371,371,1520,2021-09-24 17:11:13.475,-0.2052879333496094,
372,372,1524,2021-09-24 17:11:13.479,-0.2321815490722656,
373,373,1528,2021-09-24 17:11:13.483,-0.2181371053059896,
374,374,1532,2021-09-24 17:11:13.487,-0.193783442179362,
375,375,1536,2021-09-24 17:11:13.491,-0.2085749308268229,
376,376,1540,2021-09-24 17:11:13.495,-0.1852671305338541,
377,377,1544,2021-09-24 17:11:13.499,-0.1976680755615234,
378,378,1548,2021-09-24 17:11:13.503,-0.171820322672526,
379,379,1552,2021-09-24 17:11:13.507,-0.1636028289794922,
380,380,1556,2021-09-24 17:11:13.511,-0.2182865142822266,
381,381,1560,2021-09-24 17:11:13.515,-0.2427895863850911,
382,382,1564,2021-09-24 17:11:13.519,-0.2768548329671224,
383,383,1568,2021-09-24 17:11:13.523,-0.2731196085611979,
384,384,1572,2021-09-24 17:11:13.527,-0.2622127532958985,
385,385,1576,2021-09-24 17:11:13.531,-0.2843252817789714,
386,386,1580,2021-09-24 17:11:13.535,-0.2480189005533854,
387,387,1584,2021-09-24 17:11:13.539,-0.2565352121988932,
388,388,1588,2021-09-24 17:11:13.543,-0.2504094441731771,
389,389,1592,2021-09-24 17:11:13.547,-0.2321815490722656,
390,390,1596,2021-09-24 17:11:13.551,-0.2429389953613281,
391,391,1600,2021-09-24 17:11:13.555,-0.2042420705159505,
392,392,1604,2021-09-24 17:11:13.559,-0.2193323771158854,
393,393,1608,2021-09-24 17:11:13.563,-0.2327791849772135,
394,394,1612,2021-09-24 17:11:13.567,-0.2383073170979818,
395,395,1616,2021-09-24 17:11:13.571,-0.2693843841552735,
396,396,1620,2021-09-24 17:11:13.575,-0.2548917134602865,
397,397,1624,2021-09-24 17:11:13.579,-0.2675914764404297,
398,398,1628,2021-09-24 17:11:13.583,-0.2520529429117839,
399,399,1632,2021-09-24 17:11:13.587,-0.2371120452880859,
400,400,1636,2021-09-24 17:11:13.591,-0.2517541249593099,
401,401,1640,2021-09-24 17:11:13.595,-0.2339744567871094,
402,402,1644,2021-09-24 17:11:13.599,-0.2502600351969401,
403,403,1648,2021-09-24 17:11:13.603,-0.2312850952148437,
404,404,1652,2021-09-24 17:11:13.607,-0.2036444346110026,
405,405,1656,2021-09-24 17:11:13.611,-0.2103678385416666,
406,406,1660,2021-09-24 17:11:13.615,-0.1751073201497396,
407,407,1664,2021-09-24 17:11:13.619,-0.1797389984130859,
408,408,1668,2021-09-24 17:11:13.623,-0.1597181955973307,
409,409,1672,2021-09-24 17:11:13.627,-0.1470184326171875,
410,410,1676,2021-09-24 17:11:13.631,-0.1767508188883463,
411,411,1680,2021-09-24 17:11:13.635,-0.1715215047200521,
412,412,1684,2021-09-24 17:11:13.639,-0.1848189036051432,
413,413,1688,2021-09-24 17:11:13.643,-0.1815319061279297,
414,414,1692,2021-09-24 17:11:13.647,-0.1891517639160156,
415,415,1696,2021-09-24 17:11:13.651,-0.2269522349039713,
416,416,1700,2021-09-24 17:11:13.655,-0.2254581451416016,
417,417,1704,2021-09-24 17:11:13.659,-0.2463754018147786,
418,418,1708,2021-09-24 17:11:13.663,-0.2378590901692708,
419,419,1712,2021-09-24 17:11:13.667,-0.2155971527099609,
420,420,1716,2021-09-24 17:11:13.671,-0.2114137013753255,
421,421,1720,2021-09-24 17:11:13.675,-0.1703262329101562,
422,422,1724,2021-09-24 17:11:13.679,-0.2058855692545573,
423,423,1728,2021-09-24 17:11:13.683,-0.222469965616862,
424,424,1732,2021-09-24 17:11:13.687,-0.2351697285970052,
425,425,1736,2021-09-24 17:11:13.691,-0.2608680725097657,
426,426,1740,2021-09-24 17:11:13.695,-0.229641596476237,
427,427,1744,2021-09-24 17:11:13.699,-0.222171147664388,
428,428,1748,2021-09-24 17:11:13.703,-0.1981163024902344,
429,429,1752,2021-09-24 17:11:13.707,-0.1860141754150391,
430,430,1756,2021-09-24 17:11:13.711,-0.2133560180664062,
431,431,1760,2021-09-24 17:11:13.715,-0.2253087361653646,
432,432,1764,2021-09-24 17:11:13.719,-0.2758089701334635,
433,433,1768,2021-09-24 17:11:13.723,-0.2859687805175782,
434,434,1772,2021-09-24 17:11:13.727,-0.265499750773112,
435,435,1776,2021-09-24 17:11:13.731,-0.2613162994384766,
436,436,1780,2021-09-24 17:11:13.735,-0.2178382873535156,
437,437,1784,2021-09-24 17:11:13.739,-0.2084255218505859,
438,438,1788,2021-09-24 17:11:13.743,-0.2070808410644531,
439,439,1792,2021-09-24 17:11:13.747,-0.2084255218505859,
440,440,1796,2021-09-24 17:11:13.751,-0.2230676015218099,
441,441,1800,2021-09-24 17:11:13.755,-0.200656255086263,
442,442,1804,2021-09-24 17:11:13.759,-0.2120113372802734,
443,443,1808,2021-09-24 17:11:13.763,-0.2170912424723307,
444,444,1812,2021-09-24 17:11:13.767,-0.2070808410644531,
445,445,1816,2021-09-24 17:11:13.771,-0.214999516805013,
446,446,1820,2021-09-24 17:11:13.775,-0.1740614573160807,
447,447,1824,2021-09-24 17:11:13.779,-0.1849683125813802,
448,448,1828,2021-09-24 17:11:13.783,-0.193634033203125,
449,449,1832,2021-09-24 17:11:13.787,-0.1884047190348307,
450,450,1836,2021-09-24 17:11:13.791,-0.215298334757487,
451,451,1840,2021-09-24 17:11:13.795,-0.2175394694010416,
452,452,1844,2021-09-24 17:11:13.799,-0.244134267171224,
453,453,1848,2021-09-24 17:11:13.803,-0.2517541249593099,
454,454,1852,2021-09-24 17:11:13.807,-0.2459271748860677,
455,455,1856,2021-09-24 17:11:13.811,-0.2620633443196615,
456,456,1860,2021-09-24 17:11:13.815,-0.24383544921875,
457,457,1864,2021-09-24 17:11:13.819,-0.2481683095296224,
458,458,1868,2021-09-24 17:11:13.823,-0.2218723297119141,
459,459,1872,2021-09-24 17:11:13.827,-0.2084255218505859,
460,460,1876,2021-09-24 17:11:13.831,-0.2309862772623698,
461,461,1880,2021-09-24 17:11:13.835,-0.2253087361653646,
462,462,1884,2021-09-24 17:11:13.839,-0.2646032969156901,
463,463,1888,2021-09-24 17:11:13.843,-0.2773030598958333,
464,464,1892,2021-09-24 17:11:13.847,-0.251156489054362,
465,465,1896,2021-09-24 17:11:13.851,-0.2336756388346354,
466,466,1900,2021-09-24 17:11:13.855,-0.1961739857991536,
467,467,1904,2021-09-24 17:11:13.859,-0.1771990458170573,
468,468,1908,2021-09-24 17:11:13.863,-0.1537418365478516,
469,469,1912,2021-09-24 17:11:13.867,-0.1558335622151692,
470,470,1916,2021-09-24 17:11:13.871,-0.1915423075358073,
471,471,1920,2021-09-24 17:11:13.875,-0.193783442179362,
472,472,1924,2021-09-24 17:11:13.879,-0.2190335591634115,
473,473,1928,2021-09-24 17:11:13.883,-0.2411460876464844,
474,474,1932,2021-09-24 17:11:13.887,-0.2566846211751302,
475,475,1936,2021-09-24 17:11:13.891,-0.280141830444336,
476,476,1940,2021-09-24 17:11:13.895,-0.24383544921875,
477,477,1944,2021-09-24 17:11:13.899,-0.2048397064208984,
478,478,1948,2021-09-24 17:11:13.903,-0.0761985778808593,
479,479,1952,2021-09-24 17:11:13.907,0.1358127593994141,
480,480,1956,2021-09-24 17:11:13.911,0.3416983286539714,
481,481,1960,2021-09-24 17:11:13.915,0.4497210184733073,
482,482,1964,2021-09-24 17:11:13.919,0.2922439575195313,
483,483,1968,2021-09-24 17:11:13.923,-0.0410874684651692,
484,484,1972,2021-09-24 17:11:13.927,-0.5199432373046876,
485,485,1976,2021-09-24 17:11:13.931,-1.120866139729818,
486,486,1980,2021-09-24 17:11:13.935,-1.5347290039062502,
487,487,1984,2021-09-24 17:11:13.939,-1.6361776987711592,
488,488,1988,2021-09-24 17:11:13.943,-1.3023980458577475,
489,489,1992,2021-09-24 17:11:13.947,-0.7134278615315756,
490,490,1996,2021-09-24 17:11:13.951,-0.1855659484863281,
491,491,2000,2021-09-24 17:11:13.955,0.2354685465494791,
492,492,2004,2021-09-24 17:11:13.959,0.4459857940673828,
493,493,2008,2021-09-24 17:11:13.963,0.4957389831542969,
494,494,2012,2021-09-24 17:11:13.967,0.4431470235188802,
495,495,2016,2021-09-24 17:11:13.971,0.3056907653808594,
496,496,2020,2021-09-24 17:11:13.975,0.1910940806070963,
497,497,2024,2021-09-24 17:11:13.979,0.0451215108235677,
498,498,2028,2021-09-24 17:11:13.983,-0.0739574432373047,
499,499,2032,2021-09-24 17:11:13.987,-0.1461219787597656,
500,500,2036,2021-09-24 17:11:13.991,-0.2046902974446615,
501,501,2040,2021-09-24 17:11:13.995,-0.2392037709554036,
502,502,2044,2021-09-24 17:11:13.999,-0.294036865234375,
503,503,2048,2021-09-24 17:11:14.003,-0.3074836730957032,
504,504,2052,2021-09-24 17:11:14.007,-0.3113683064778646,
505,505,2056,2021-09-24 17:11:14.011,-0.3206316630045573,
506,506,2060,2021-09-24 17:11:14.015,-0.2864170074462891,
507,507,2064,2021-09-24 17:11:14.019,-0.2771536509195964,
508,508,2068,2021-09-24 17:11:14.023,-0.2619139353434245,
509,509,2072,2021-09-24 17:11:14.027,-0.2714761098225912,
510,510,2076,2021-09-24 17:11:14.031,-0.2746136983235677,
511,511,2080,2021-09-24 17:11:14.035,-0.251305898030599,
512,512,2084,2021-09-24 17:11:14.039,-0.2601210276285807,
513,513,2088,2021-09-24 17:11:14.043,-0.2553399403889974,
514,514,2092,2021-09-24 17:11:14.047,-0.2430884043375651,
515,515,2096,2021-09-24 17:11:14.051,-0.2356179555257161,
516,516,2100,2021-09-24 17:11:14.055,-0.2111148834228516,
517,517,2104,2021-09-24 17:11:14.059,-0.2127583821614583,
518,518,2108,2021-09-24 17:11:14.063,-0.2217229207356771,
519,519,2112,2021-09-24 17:11:14.067,-0.2274004618326823,
520,520,2116,2021-09-24 17:11:14.071,-0.2622127532958985,
521,521,2120,2021-09-24 17:11:14.075,-0.2522023518880208,
522,522,2124,2021-09-24 17:11:14.079,-0.2372614542643229,
523,523,2128,2021-09-24 17:11:14.083,-0.21514892578125,
524,524,2132,2021-09-24 17:11:14.087,-0.1801872253417969,
525,525,2136,2021-09-24 17:11:14.091,-0.1943810780843099,
526,526,2140,2021-09-24 17:11:14.095,-0.1852671305338541,
527,527,2144,2021-09-24 17:11:14.099,-0.1833248138427734,
528,528,2148,2021-09-24 17:11:14.103,-0.2014032999674479,
529,529,2152,2021-09-24 17:11:14.107,-0.2042420705159505,
530,530,2156,2021-09-24 17:11:14.111,-0.2241134643554687,
531,531,2160,2021-09-24 17:11:14.115,-0.208126703898112,
532,532,2164,2021-09-24 17:11:14.119,-0.229342778523763,
533,533,2168,2021-09-24 17:11:14.123,-0.2429389953613281,
534,534,2172,2021-09-24 17:11:14.127,-0.2405484517415365,
535,535,2176,2021-09-24 17:11:14.131,-0.2599716186523438,
536,536,2180,2021-09-24 17:11:14.135,-0.2383073170979818,
537,537,2184,2021-09-24 17:11:14.139,-0.2312850952148437,
538,538,2188,2021-09-24 17:11:14.143,-0.2323309580485026,
539,539,2192,2021-09-24 17:11:14.147,-0.2265040079752604,
540,540,2196,2021-09-24 17:11:14.151,-0.229342778523763,
541,541,2200,2021-09-24 17:11:14.155,-0.2057361602783203,
542,542,2204,2021-09-24 17:11:14.159,-0.2100690205891927,
543,543,2208,2021-09-24 17:11:14.163,-0.2360661824544271,
544,544,2212,2021-09-24 17:11:14.167,-0.2610174814860026,
545,545,2216,2021-09-24 17:11:14.171,-0.2956803639729818,
546,546,2220,2021-09-24 17:11:14.175,-0.2765560150146485,
547,547,2224,2021-09-24 17:11:14.179,-0.2678902943929037,
548,548,2228,2021-09-24 17:11:14.183,-0.2737172444661458,
549,549,2232,2021-09-24 17:11:14.187,-0.2469730377197266,
550,550,2236,2021-09-24 17:11:14.191,-0.2590751647949219,
551,551,2240,2021-09-24 17:11:14.195,-0.2526505788167318,
552,552,2244,2021-09-24 17:11:14.199,-0.2640056610107422,
553,553,2248,2021-09-24 17:11:14.203,-0.2641550699869792,
554,554,2252,2021-09-24 17:11:14.207,-0.2250099182128906,
555,555,2256,2021-09-24 17:11:14.211,-0.214999516805013,
556,556,2260,2021-09-24 17:11:14.215,-0.1786931355794271,
557,557,2264,2021-09-24 17:11:14.219,-0.1752567291259766,
558,558,2268,2021-09-24 17:11:14.223,-0.1895999908447266,
559,559,2272,2021-09-24 17:11:14.227,-0.1716709136962891,
560,560,2276,2021-09-24 17:11:14.231,-0.1804860432942708,
561,561,2280,2021-09-24 17:11:14.235,-0.1558335622151692,
562,562,2284,2021-09-24 17:11:14.239,-0.1556841532389323,
563,563,2288,2021-09-24 17:11:14.243,-0.1724179585774739,
564,564,2292,2021-09-24 17:11:14.247,-0.1655451456705729,
565,565,2296,2021-09-24 17:11:14.251,-0.1754061381022135,
566,566,2300,2021-09-24 17:11:14.255,-0.171969731648763,
567,567,2304,2021-09-24 17:11:14.259,-0.1907952626546224,
568,568,2308,2021-09-24 17:11:14.263,-0.215447743733724,
569,569,2312,2021-09-24 17:11:14.267,-0.2138042449951172,
570,570,2316,2021-09-24 17:11:14.271,-0.2260557810465495,
571,571,2320,2021-09-24 17:11:14.275,-0.2087243398030599,
572,572,2324,2021-09-24 17:11:14.279,-0.2072302500406901,
573,573,2328,2021-09-24 17:11:14.283,-0.2218723297119141,
574,574,2332,2021-09-24 17:11:14.287,-0.222320556640625,
575,575,2336,2021-09-24 17:11:14.291,-0.2581787109375,
576,576,2340,2021-09-24 17:11:14.295,-0.2596728006998698,
577,577,2344,2021-09-24 17:11:14.299,-0.2547423044840495,
578,578,2348,2021-09-24 17:11:14.303,-0.2338250478108724,
579,579,2352,2021-09-24 17:11:14.307,-0.1942316691080729,
580,580,2356,2021-09-24 17:11:14.311,-0.2064832051595052,
581,581,2360,2021-09-24 17:11:14.315,-0.2211252848307291,
582,582,2364,2021-09-24 17:11:14.319,-0.2568340301513672,
583,583,2368,2021-09-24 17:11:14.323,-0.272970199584961,
584,584,2372,2021-09-24 17:11:14.327,-0.2378590901692708,
585,585,2376,2021-09-24 17:11:14.331,-0.2287451426188151,
586,586,2380,2021-09-24 17:11:14.335,-0.207678476969401,
587,587,2384,2021-09-24 17:11:14.339,-0.2067820231119791,
588,588,2388,2021-09-24 17:11:14.343,-0.2169418334960937,
589,589,2392,2021-09-24 17:11:14.347,-0.200656255086263,
590,590,2396,2021-09-24 17:11:14.351,-0.2229181925455729,
591,591,2400,2021-09-24 17:11:14.355,-0.2271016438802083,
592,592,2404,2021-09-24 17:11:14.359,-0.2520529429117839,
593,593,2408,2021-09-24 17:11:14.363,-0.2444330851236979,
594,594,2412,2021-09-24 17:11:14.367,-0.2060349782307943,
595,595,2416,2021-09-24 17:11:14.371,-0.2106666564941406,
596,596,2420,2021-09-24 17:11:14.375,-0.193484624226888,
597,597,2424,2021-09-24 17:11:14.379,-0.2034950256347656,
598,598,2428,2021-09-24 17:11:14.383,-0.2217229207356771,
599,599,2432,2021-09-24 17:11:14.387,-0.2188841501871745,
600,600,2436,2021-09-24 17:11:14.391,-0.2399508158365885,
601,601,2440,2021-09-24 17:11:14.395,-0.2203782399495443,
602,602,2444,2021-09-24 17:11:14.399,-0.1999092102050781,
603,603,2448,2021-09-24 17:11:14.403,-0.1898988087972005,
604,604,2452,2021-09-24 17:11:14.407,-0.1692803700764974,
605,605,2456,2021-09-24 17:11:14.411,-0.1906458536783854,
606,606,2460,2021-09-24 17:11:14.415,-0.2030467987060547,
607,607,2464,2021-09-24 17:11:14.419,-0.2306874593098958,
608,608,2468,2021-09-24 17:11:14.423,-0.2625115712483724,
609,609,2472,2021-09-24 17:11:14.427,-0.2613162994384766,
610,610,2476,2021-09-24 17:11:14.431,-0.286566416422526,
611,611,2480,2021-09-24 17:11:14.435,-0.280141830444336,
612,612,2484,2021-09-24 17:11:14.439,-0.2666950225830078,
613,613,2488,2021-09-24 17:11:14.443,-0.2424907684326172,
614,614,2492,2021-09-24 17:11:14.447,-0.2100690205891927,
615,615,2496,2021-09-24 17:11:14.451,-0.2182865142822266,
616,616,2500,2021-09-24 17:11:14.455,-0.193484624226888,
617,617,2504,2021-09-24 17:11:14.459,-0.1797389984130859,
618,618,2508,2021-09-24 17:11:14.463,-0.1848189036051432,
619,619,2512,2021-09-24 17:11:14.467,-0.1907952626546224,
620,620,2516,2021-09-24 17:11:14.471,-0.2205276489257812,
621,621,2520,2021-09-24 17:11:14.475,-0.2017021179199219,
622,622,2524,2021-09-24 17:11:14.479,-0.2129077911376953,
623,623,2528,2021-09-24 17:11:14.483,-0.2424907684326172,
624,624,2532,2021-09-24 17:11:14.487,-0.2401002248128255,
625,625,2536,2021-09-24 17:11:14.491,-0.2617645263671875,
626,626,2540,2021-09-24 17:11:14.495,-0.2762571970621745,
627,627,2544,2021-09-24 17:11:14.499,-0.2914969126383464,
628,628,2548,2021-09-24 17:11:14.503,-0.2501106262207032,
629,629,2552,2021-09-24 17:11:14.507,-0.0906912485758463,
630,630,2556,2021-09-24 17:11:14.511,0.1202742258707682,
631,631,2560,2021-09-24 17:11:14.515,0.3554439544677735,
632,632,2564,2021-09-24 17:11:14.519,0.4851309458414714,
633,633,2568,2021-09-24 17:11:14.523,0.4047489166259766,
634,634,2572,2021-09-24 17:11:14.527,0.1269976298014323,
635,635,2576,2021-09-24 17:11:14.531,-0.3696378072102865,
636,636,2580,2021-09-24 17:11:14.535,-0.9881909688313804,
637,637,2584,2021-09-24 17:11:14.539,-1.538165410359701,
638,638,2588,2021-09-24 17:11:14.543,-1.7437521616617842,
639,639,2592,2021-09-24 17:11:14.547,-1.4264074961344402,
640,640,2596,2021-09-24 17:11:14.551,-0.832656224568685,
641,641,2600,2021-09-24 17:11:14.555,-0.2002080281575521,
642,642,2604,2021-09-24 17:11:14.559,0.2683385213216146,
643,643,2608,2021-09-24 17:11:14.563,0.4704888661702474,
644,644,2612,2021-09-24 17:11:14.567,0.4751205444335938,
645,645,2616,2021-09-24 17:11:14.571,0.3484217325846354,
646,646,2620,2021-09-24 17:11:14.575,0.2269522349039713,
647,647,2624,2021-09-24 17:11:14.579,0.1177342732747395,
648,648,2628,2021-09-24 17:11:14.583,0.0201702117919921,
649,649,2632,2021-09-24 17:11:14.587,-0.0488567352294921,
650,650,2636,2021-09-24 17:11:14.591,-0.1414903004964192,
651,651,2640,2021-09-24 17:11:14.595,-0.2008056640625,
652,652,2644,2021-09-24 17:11:14.599,-0.2498118082682291,
653,653,2648,2021-09-24 17:11:14.603,-0.2761077880859375,
654,654,2652,2021-09-24 17:11:14.607,-0.2604198455810547,
655,655,2656,2021-09-24 17:11:14.611,-0.2641550699869792,
656,656,2660,2021-09-24 17:11:14.615,-0.2562363942464193,
657,657,2664,2021-09-24 17:11:14.619,-0.2714761098225912,
658,658,2668,2021-09-24 17:11:14.623,-0.287164052327474,
659,659,2672,2021-09-24 17:11:14.627,-0.2758089701334635,
660,660,2676,2021-09-24 17:11:14.631,-0.2822335561116537,
661,661,2680,2021-09-24 17:11:14.635,-0.2610174814860026,
662,662,2684,2021-09-24 17:11:14.639,-0.2535470326741537,
663,663,2688,2021-09-24 17:11:14.643,-0.2399508158365885,
664,664,2692,2021-09-24 17:11:14.647,-0.2182865142822266,
665,665,2696,2021-09-24 17:11:14.651,-0.2398014068603516,
666,666,2700,2021-09-24 17:11:14.655,-0.2395025889078776,
667,667,2704,2021-09-24 17:11:14.659,-0.2502600351969401,
668,668,2708,2021-09-24 17:11:14.663,-0.2489153544108073,
669,669,2712,2021-09-24 17:11:14.667,-0.2303886413574219,
670,670,2716,2021-09-24 17:11:14.671,-0.2395025889078776,
671,671,2720,2021-09-24 17:11:14.675,-0.2214241027832031,
672,672,2724,2021-09-24 17:11:14.679,-0.2142524719238281,
673,673,2728,2021-09-24 17:11:14.683,-0.2163441975911458,
674,674,2732,2021-09-24 17:11:14.687,-0.1951281229654948,
675,675,2736,2021-09-24 17:11:14.691,-0.1973692576090495,
676,676,2740,2021-09-24 17:11:14.695,-0.1851177215576172,
677,677,2744,2021-09-24 17:11:14.699,-0.2039432525634766,
678,678,2748,2021-09-24 17:11:14.703,-0.2238146464029948,
679,679,2752,2021-09-24 17:11:14.707,-0.2060349782307943,
680,680,2756,2021-09-24 17:11:14.711,-0.2130572001139323,
681,681,2760,2021-09-24 17:11:14.715,-0.1964728037516276,
682,682,2764,2021-09-24 17:11:14.719,-0.207977294921875,
683,683,2768,2021-09-24 17:11:14.723,-0.236663818359375,
684,684,2772,2021-09-24 17:11:14.727,-0.2353191375732422,
685,685,2776,2021-09-24 17:11:14.731,-0.2490647633870443,
686,686,2780,2021-09-24 17:11:14.735,-0.2341238657633463,
687,687,2784,2021-09-24 17:11:14.739,-0.2610174814860026,
688,688,2788,2021-09-24 17:11:14.743,-0.279693603515625,
689,689,2792,2021-09-24 17:11:14.747,-0.2496623992919922,
690,690,2796,2021-09-24 17:11:14.751,-0.2415943145751953,
691,691,2800,2021-09-24 17:11:14.755,-0.2194817860921224,
692,692,2804,2021-09-24 17:11:14.759,-0.2285957336425781,
693,693,2808,2021-09-24 17:11:14.763,-0.2421919504801432,
694,694,2812,2021-09-24 17:11:14.767,-0.2282969156901041,
695,695,2816,2021-09-24 17:11:14.771,-0.2535470326741537,
696,696,2820,2021-09-24 17:11:14.775,-0.251305898030599,
697,697,2824,2021-09-24 17:11:14.779,-0.2619139353434245,
698,698,2828,2021-09-24 17:11:14.783,-0.2637068430582682,
699,699,2832,2021-09-24 17:11:14.787,-0.2314345041910807,
700,700,2836,2021-09-24 17:11:14.791,-0.2421919504801432,
701,701,2840,2021-09-24 17:11:14.795,-0.236813227335612,
702,702,2844,2021-09-24 17:11:14.799,-0.2420425415039062,
703,703,2848,2021-09-24 17:11:14.803,-0.2442836761474609,
704,704,2852,2021-09-24 17:11:14.807,-0.2275498708089193,
705,705,2856,2021-09-24 17:11:14.811,-0.2351697285970052,
706,706,2860,2021-09-24 17:11:14.815,-0.2057361602783203,
707,707,2864,2021-09-24 17:11:14.819,-0.200506846110026,
708,708,2868,2021-09-24 17:11:14.823,-0.1990127563476562,
709,709,2872,2021-09-24 17:11:14.827,-0.1653957366943359,
710,710,2876,2021-09-24 17:11:14.831,-0.1655451456705729,
711,711,2880,2021-09-24 17:11:14.835,-0.1613616943359375,
712,712,2884,2021-09-24 17:11:14.839,-0.1780954996744791,
713,713,2888,2021-09-24 17:11:14.843,-0.2012538909912109,
714,714,2892,2021-09-24 17:11:14.847,-0.1904964447021484,
715,715,2896,2021-09-24 17:11:14.851,-0.2037938435872396,
716,716,2900,2021-09-24 17:11:14.855,-0.1852671305338541,
717,717,2904,2021-09-24 17:11:14.859,-0.1849683125813802,
718,718,2908,2021-09-24 17:11:14.863,-0.1963233947753906,
719,719,2912,2021-09-24 17:11:14.867,-0.2066326141357422,
720,720,2916,2021-09-24 17:11:14.871,-0.2405484517415365,
721,721,2920,2021-09-24 17:11:14.875,-0.2242628733317057,
722,722,2924,2021-09-24 17:11:14.879,-0.2161947886149088,
723,723,2928,2021-09-24 17:11:14.883,-0.214850107828776,
724,724,2932,2021-09-24 17:11:14.887,-0.2091725667317708,
725,725,2936,2021-09-24 17:11:14.891,-0.2389049530029297,
726,726,2940,2021-09-24 17:11:14.895,-0.2274004618326823,
727,727,2944,2021-09-24 17:11:14.899,-0.2278486887613932,
728,728,2948,2021-09-24 17:11:14.903,-0.2354685465494791,
729,729,2952,2021-09-24 17:11:14.907,-0.2172406514485677,
730,730,2956,2021-09-24 17:11:14.911,-0.2285957336425781,
731,731,2960,2021-09-24 17:11:14.915,-0.2163441975911458,
732,732,2964,2021-09-24 17:11:14.919,-0.2309862772623698,
733,733,2968,2021-09-24 17:11:14.923,-0.251156489054362,
734,734,2972,2021-09-24 17:11:14.927,-0.2312850952148437,
735,735,2976,2021-09-24 17:11:14.931,-0.2387555440266927,
736,736,2980,2021-09-24 17:11:14.935,-0.2202288309733073,
737,737,2984,2021-09-24 17:11:14.939,-0.2193323771158854,
738,738,2988,2021-09-24 17:11:14.943,-0.2260557810465495,
739,739,2992,2021-09-24 17:11:14.947,-0.2085749308268229,
740,740,2996,2021-09-24 17:11:14.951,-0.222171147664388,
741,741,3000,2021-09-24 17:11:14.955,-0.2127583821614583,
742,742,3004,2021-09-24 17:11:14.959,-0.2229181925455729,
743,743,3008,2021-09-24 17:11:14.963,-0.236514409383138,
744,744,3012,2021-09-24 17:11:14.967,-0.2112642923990885,
745,745,3016,2021-09-24 17:11:14.971,-0.2194817860921224,
746,746,3020,2021-09-24 17:11:14.975,-0.214999516805013,
747,747,3024,2021-09-24 17:11:14.979,-0.2236652374267578,
748,748,3028,2021-09-24 17:11:14.983,-0.2339744567871094,
749,749,3032,2021-09-24 17:11:14.987,-0.2133560180664062,
750,750,3036,2021-09-24 17:11:14.991,-0.2121607462565104,
751,751,3040,2021-09-24 17:11:14.995,-0.1881059010823567,
752,752,3044,2021-09-24 17:11:14.999,-0.1873588562011719,
753,753,3048,2021-09-24 17:11:15.003,-0.2022997538248698,
754,754,3052,2021-09-24 17:11:15.007,-0.2040926615397135,
755,755,3056,2021-09-24 17:11:15.011,-0.2351697285970052,
756,756,3060,2021-09-24 17:11:15.015,-0.2259063720703125,
757,757,3064,2021-09-24 17:11:15.019,-0.2214241027832031,
758,758,3068,2021-09-24 17:11:15.023,-0.2312850952148437,
759,759,3072,2021-09-24 17:11:15.027,-0.2317333221435547,
760,760,3076,2021-09-24 17:11:15.031,-0.2595233917236328,
761,761,3080,2021-09-24 17:11:15.035,-0.2592245737711589,
762,762,3084,2021-09-24 17:11:15.039,-0.2544434865315755,
763,763,3088,2021-09-24 17:11:15.043,-0.24383544921875,
764,764,3092,2021-09-24 17:11:15.047,-0.2127583821614583,
765,765,3096,2021-09-24 17:11:15.051,-0.2145512898763021,
766,766,3100,2021-09-24 17:11:15.055,-0.1903470357259114,
767,767,3104,2021-09-24 17:11:15.059,-0.1913928985595703,
768,768,3108,2021-09-24 17:11:15.063,-0.2069314320882161,
769,769,3112,2021-09-24 17:11:15.067,-0.1988633473714193,
770,770,3116,2021-09-24 17:11:15.071,-0.215298334757487,
771,771,3120,2021-09-24 17:11:15.075,-0.2196311950683594,
772,772,3124,2021-09-24 17:11:15.079,-0.222619374593099,
773,773,3128,2021-09-24 17:11:15.083,-0.2320321400960286,
774,774,3132,2021-09-24 17:11:15.087,-0.2120113372802734,
775,775,3136,2021-09-24 17:11:15.091,-0.2271016438802083,
776,776,3140,2021-09-24 17:11:15.095,-0.2472718556722005,
777,777,3144,2021-09-24 17:11:15.099,-0.2764066060384115,
778,778,3148,2021-09-24 17:11:15.103,-0.294485092163086,
779,779,3152,2021-09-24 17:11:15.107,-0.2123101552327474,
780,780,3156,2021-09-24 17:11:15.111,-0.0756009419759114,
781,781,3160,2021-09-24 17:11:15.115,0.1419385274251302,
782,782,3164,2021-09-24 17:11:15.119,0.3596274058024089,
783,783,3168,2021-09-24 17:11:15.123,0.4559961954752605,
784,784,3172,2021-09-24 17:11:15.127,0.3889115651448568,
785,785,3176,2021-09-24 17:11:15.131,0.1020463307698567,
786,786,3180,2021-09-24 17:11:15.135,-0.3647073109944662,
787,787,3184,2021-09-24 17:11:15.139,-0.969514846801758,
788,788,3188,2021-09-24 17:11:15.143,-1.4655526479085288,
789,789,3192,2021-09-24 17:11:15.147,-1.6269143422444663,
790,790,3196,2021-09-24 17:11:15.151,-1.4110183715820317,
791,791,3200,2021-09-24 17:11:15.155,-0.8490912119547527,
792,792,3204,2021-09-24 17:11:15.159,-0.214850107828776,
793,793,3208,2021-09-24 17:11:15.163,0.1990127563476562,
794,794,3212,2021-09-24 17:11:15.167,0.3715801239013672,
795,795,3216,2021-09-24 17:11:15.171,0.3485711415608724,
796,796,3220,2021-09-24 17:11:15.175,0.265798568725586,
797,797,3224,2021-09-24 17:11:15.179,0.1637522379557291,
798,798,3228,2021-09-24 17:11:15.183,0.0509484608968099,
799,799,3232,2021-09-24 17:11:15.187,-0.0179290771484375,
800,800,3236,2021-09-24 17:11:15.191,-0.0900936126708984,
801,801,3240,2021-09-24 17:11:15.195,-0.128790537516276,
802,802,3244,2021-09-24 17:11:15.199,-0.1458231608072916,
803,803,3248,2021-09-24 17:11:15.203,-0.1876576741536458,
804,804,3252,2021-09-24 17:11:15.207,-0.2070808410644531,
805,805,3256,2021-09-24 17:11:15.211,-0.2401002248128255,
806,806,3260,2021-09-24 17:11:15.215,-0.2384567260742187,
807,807,3264,2021-09-24 17:11:15.219,-0.2414449055989583,
808,808,3268,2021-09-24 17:11:15.223,-0.2737172444661458,
809,809,3272,2021-09-24 17:11:15.227,-0.272671381632487,
810,810,3276,2021-09-24 17:11:15.231,-0.2831300099690755,
811,811,3280,2021-09-24 17:11:15.235,-0.2702808380126953,
812,812,3284,2021-09-24 17:11:15.239,-0.2483177185058594,
813,813,3288,2021-09-24 17:11:15.243,-0.2472718556722005,
814,814,3292,2021-09-24 17:11:15.247,-0.2276992797851562,
815,815,3296,2021-09-24 17:11:15.251,-0.2386061350504557,
816,816,3300,2021-09-24 17:11:15.255,-0.2356179555257161,
817,817,3304,2021-09-24 17:11:15.259,-0.2272510528564453,
818,818,3308,2021-09-24 17:11:15.263,-0.243536631266276,
819,819,3312,2021-09-24 17:11:15.267,-0.2271016438802083,
820,820,3316,2021-09-24 17:11:15.271,-0.2345720926920573,
821,821,3320,2021-09-24 17:11:15.275,-0.2288945515950521,
822,822,3324,2021-09-24 17:11:15.279,-0.2123101552327474,
823,823,3328,2021-09-24 17:11:15.283,-0.2142524719238281,
824,824,3332,2021-09-24 17:11:15.287,-0.1955763498942057,
825,825,3336,2021-09-24 17:11:15.291,-0.208126703898112,
826,826,3340,2021-09-24 17:11:15.295,-0.200656255086263,
827,827,3344,2021-09-24 17:11:15.299,-0.1925881703694661,
828,828,3348,2021-09-24 17:11:15.303,-0.2132066090901693,
829,829,3352,2021-09-24 17:11:15.307,-0.2054373423258463,
830,830,3356,2021-09-24 17:11:15.311,-0.2235158284505208,
831,831,3360,2021-09-24 17:11:15.315,-0.2312850952148437,
832,832,3364,2021-09-24 17:11:15.319,-0.2251593271891276,
833,833,3368,2021-09-24 17:11:15.323,-0.229791005452474,
834,834,3372,2021-09-24 17:11:15.327,-0.2072302500406901,
835,835,3376,2021-09-24 17:11:15.331,-0.2129077911376953,
836,836,3380,2021-09-24 17:11:15.335,-0.2218723297119141,
837,837,3384,2021-09-24 17:11:15.339,-0.2276992797851562,
838,838,3388,2021-09-24 17:11:15.343,-0.2550411224365235,
839,839,3392,2021-09-24 17:11:15.347,-0.2462259928385416,
840,840,3396,2021-09-24 17:11:15.351,-0.2545928955078125,
841,841,3400,2021-09-24 17:11:15.355,-0.2465248107910156,
842,842,3404,2021-09-24 17:11:15.359,-0.2359167734781901,
843,843,3408,2021-09-24 17:11:15.363,-0.2463754018147786,
844,844,3412,2021-09-24 17:11:15.367,-0.2282969156901041,
845,845,3416,2021-09-24 17:11:15.371,-0.2408472696940104,
846,846,3420,2021-09-24 17:11:15.375,-0.2399508158365885,
847,847,3424,2021-09-24 17:11:15.379,-0.236962636311849,
848,848,3428,2021-09-24 17:11:15.383,-0.2481683095296224,
849,849,3432,2021-09-24 17:11:15.387,-0.2317333221435547,
850,850,3436,2021-09-24 17:11:15.391,-0.2432378133138021,
851,851,3440,2021-09-24 17:11:15.395,-0.2384567260742187,
852,852,3444,2021-09-24 17:11:15.399,-0.2309862772623698,
853,853,3448,2021-09-24 17:11:15.403,-0.243984858194987,
854,854,3452,2021-09-24 17:11:15.407,-0.2241134643554687,
855,855,3456,2021-09-24 17:11:15.411,-0.2345720926920573,
856,856,3460,2021-09-24 17:11:15.415,-0.2214241027832031,
857,857,3464,2021-09-24 17:11:15.419,-0.2045408884684245,
858,858,3468,2021-09-24 17:11:15.423,-0.2093219757080078,
859,859,3472,2021-09-24 17:11:15.427,-0.1848189036051432,
860,860,3476,2021-09-24 17:11:15.431,-0.1881059010823567,
861,861,3480,2021-09-24 17:11:15.435,-0.1774978637695312,
862,862,3484,2021-09-24 17:11:15.439,-0.1686827341715495,
863,863,3488,2021-09-24 17:11:15.443,-0.1960245768229166,
864,864,3492,2021-09-24 17:11:15.447,-0.1872094472249349,
865,865,3496,2021-09-24 17:11:15.451,-0.201104482014974,
866,866,3500,2021-09-24 17:11:15.455,-0.208126703898112,
867,867,3504,2021-09-24 17:11:15.459,-0.2027479807535807,
868,868,3508,2021-09-24 17:11:15.463,-0.2144018809000651,
869,869,3512,2021-09-24 17:11:15.467,-0.2003574371337891,
870,870,3516,2021-09-24 17:11:15.471,-0.222619374593099,
871,871,3520,2021-09-24 17:11:15.475,-0.2317333221435547,
872,872,3524,2021-09-24 17:11:15.479,-0.2269522349039713,
873,873,3528,2021-09-24 17:11:15.483,-0.2384567260742187,
874,874,3532,2021-09-24 17:11:15.487,-0.222320556640625,
875,875,3536,2021-09-24 17:11:15.491,-0.2338250478108724,
876,876,3540,2021-09-24 17:11:15.495,-0.2290439605712891,
877,877,3544,2021-09-24 17:11:15.499,-0.215447743733724,
878,878,3548,2021-09-24 17:11:15.503,-0.2278486887613932,
879,879,3552,2021-09-24 17:11:15.507,-0.2184359232584635,
880,880,3556,2021-09-24 17:11:15.511,-0.2344226837158203,
881,881,3560,2021-09-24 17:11:15.515,-0.2299404144287109,
882,882,3564,2021-09-24 17:11:15.519,-0.2206770579020182,
883,883,3568,2021-09-24 17:11:15.523,-0.2380084991455078,
884,884,3572,2021-09-24 17:11:15.527,-0.2190335591634115,
885,885,3576,2021-09-24 17:11:15.531,-0.2263545989990234,
886,886,3580,2021-09-24 17:11:15.535,-0.222021738688151,
887,887,3584,2021-09-24 17:11:15.539,-0.2170912424723307,
888,888,3588,2021-09-24 17:11:15.543,-0.2312850952148437,
889,889,3592,2021-09-24 17:11:15.547,-0.2108160654703776,
890,890,3596,2021-09-24 17:11:15.551,-0.222320556640625,
891,891,3600,2021-09-24 17:11:15.555,-0.2238146464029948,
892,892,3604,2021-09-24 17:11:15.559,-0.2123101552327474,
893,893,3608,2021-09-24 17:11:15.563,-0.229193369547526,
894,894,3612,2021-09-24 17:11:15.567,-0.2121607462565104,
895,895,3616,2021-09-24 17:11:15.571,-0.2235158284505208,
896,896,3620,2021-09-24 17:11:15.575,-0.2179876963297526,
897,897,3624,2021-09-24 17:11:15.579,-0.2087243398030599,
898,898,3628,2021-09-24 17:11:15.583,-0.2341238657633463,
899,899,3632,2021-09-24 17:11:15.587,-0.2254581451416016,
900,900,3636,2021-09-24 17:11:15.591,-0.2350203196207682,
901,901,3640,2021-09-24 17:11:15.595,-0.2196311950683594,
902,902,3644,2021-09-24 17:11:15.599,-0.1970704396565755,
903,903,3648,2021-09-24 17:11:15.603,-0.1981163024902344,
904,904,3652,2021-09-24 17:11:15.607,-0.1766014099121094,
905,905,3656,2021-09-24 17:11:15.611,-0.1960245768229166,
906,906,3660,2021-09-24 17:11:15.615,-0.2048397064208984,
907,907,3664,2021-09-24 17:11:15.619,-0.2127583821614583,
908,908,3668,2021-09-24 17:11:15.623,-0.2354685465494791,
909,909,3672,2021-09-24 17:11:15.627,-0.2194817860921224,
910,910,3676,2021-09-24 17:11:15.631,-0.2306874593098958,
911,911,3680,2021-09-24 17:11:15.635,-0.236962636311849,
912,912,3684,2021-09-24 17:11:15.639,-0.2402496337890625,
913,913,3688,2021-09-24 17:11:15.643,-0.2628103892008464,
914,914,3692,2021-09-24 17:11:15.647,-0.2544434865315755,
915,915,3696,2021-09-24 17:11:15.651,-0.2589257558186849,
916,916,3700,2021-09-24 17:11:15.655,-0.2357673645019531,
917,917,3704,2021-09-24 17:11:15.659,-0.2064832051595052,
918,918,3708,2021-09-24 17:11:15.663,-0.2118619283040365,
919,919,3712,2021-09-24 17:11:15.667,-0.1994609832763672,
920,920,3716,2021-09-24 17:11:15.671,-0.2117125193277995,
921,921,3720,2021-09-24 17:11:15.675,-0.2166430155436198,
922,922,3724,2021-09-24 17:11:15.679,-0.208276112874349,
923,923,3728,2021-09-24 17:11:15.683,-0.2208264668782552,
924,924,3732,2021-09-24 17:11:15.687,-0.2033456166585286,
925,925,3736,2021-09-24 17:11:15.691,-0.2123101552327474,
926,926,3740,2021-09-24 17:11:15.695,-0.2132066090901693,
927,927,3744,2021-09-24 17:11:15.699,-0.222021738688151,
928,928,3748,2021-09-24 17:11:15.703,-0.2620633443196615,
929,929,3752,2021-09-24 17:11:15.707,-0.2753607432047526,
930,930,3756,2021-09-24 17:11:15.711,-0.2998638153076172,
931,931,3760,2021-09-24 17:11:15.715,-0.2674420674641927,
932,932,3764,2021-09-24 17:11:15.719,-0.1473172505696614,
933,933,3768,2021-09-24 17:11:15.723,0.0074704488118489,
934,934,3772,2021-09-24 17:11:15.727,0.2138042449951172,
935,935,3776,2021-09-24 17:11:15.731,0.3569380442301432,
936,936,3780,2021-09-24 17:11:15.735,0.4190921783447266,
937,937,3784,2021-09-24 17:11:15.739,0.2898534138997396,
938,938,3788,2021-09-24 17:11:15.743,-0.0333182017008463,
939,939,3792,2021-09-24 17:11:15.747,-0.5345853169759115,
940,940,3796,2021-09-24 17:11:15.751,-1.11384391784668,
941,941,3800,2021-09-24 17:11:15.755,-1.4619668324788413,
942,942,3804,2021-09-24 17:11:15.759,-1.4979743957519531,
943,943,3808,2021-09-24 17:11:15.763,-1.1866060892740886,
944,944,3812,2021-09-24 17:11:15.767,-0.6134732564290365,
945,945,3816,2021-09-24 17:11:15.771,-0.1017475128173828,
946,946,3820,2021-09-24 17:11:15.775,0.2060349782307943,
947,947,3824,2021-09-24 17:11:15.779,0.3131612141927083,
948,948,3828,2021-09-24 17:11:15.783,0.265200932820638,
949,949,3832,2021-09-24 17:11:15.787,0.193783442179362,
950,950,3836,2021-09-24 17:11:15.791,0.0962193806966145,
951,951,3840,2021-09-24 17:11:15.795,0.0201702117919921,
952,952,3844,2021-09-24 17:11:15.799,-0.0385475158691406,
953,953,3848,2021-09-24 17:11:15.803,-0.0990581512451172,
954,954,3852,2021-09-24 17:11:15.807,-0.1196765899658203,
955,955,3856,2021-09-24 17:11:15.811,-0.1634534200032552,
956,956,3860,2021-09-24 17:11:15.815,-0.1958751678466797,
957,957,3864,2021-09-24 17:11:15.819,-0.215298334757487,
958,958,3868,2021-09-24 17:11:15.823,-0.2406978607177734,
959,959,3872,2021-09-24 17:11:15.827,-0.2305380503336588,
960,960,3876,2021-09-24 17:11:15.831,-0.2402496337890625,
961,961,3880,2021-09-24 17:11:15.835,-0.2353191375732422,
962,962,3884,2021-09-24 17:11:15.839,-0.2342732747395833,
963,963,3888,2021-09-24 17:11:15.843,-0.2527999877929688,
964,964,3892,2021-09-24 17:11:15.847,-0.2353191375732422,
965,965,3896,2021-09-24 17:11:15.851,-0.2421919504801432,
966,966,3900,2021-09-24 17:11:15.855,-0.2454789479573568,
967,967,3904,2021-09-24 17:11:15.859,-0.2465248107910156,
968,968,3908,2021-09-24 17:11:15.863,-0.2637068430582682,
969,969,3912,2021-09-24 17:11:15.867,-0.2475706736246745,
970,970,3916,2021-09-24 17:11:15.871,-0.251007080078125,
971,971,3920,2021-09-24 17:11:15.875,-0.2403990427652995,
972,972,3924,2021-09-24 17:11:15.879,-0.2263545989990234,
973,973,3928,2021-09-24 17:11:15.883,-0.2357673645019531,
974,974,3932,2021-09-24 17:11:15.887,-0.215298334757487,
975,975,3936,2021-09-24 17:11:15.891,-0.2233664194742838,
976,976,3940,2021-09-24 17:11:15.895,-0.215298334757487,
977,977,3944,2021-09-24 17:11:15.899,-0.1961739857991536,
978,978,3948,2021-09-24 17:11:15.903,-0.2129077911376953,
979,979,3952,2021-09-24 17:11:15.907,-0.2063337961832682,
980,980,3956,2021-09-24 17:11:15.911,-0.2187347412109375,
981,981,3960,2021-09-24 17:11:15.915,-0.2141030629475911,
982,982,3964,2021-09-24 17:11:15.919,-0.2022997538248698,
983,983,3968,2021-09-24 17:11:15.923,-0.2250099182128906,
984,984,3972,2021-09-24 17:11:15.927,-0.2178382873535156,
985,985,3976,2021-09-24 17:11:15.931,-0.2323309580485026,
986,986,3980,2021-09-24 17:11:15.935,-0.2306874593098958,
987,987,3984,2021-09-24 17:11:15.939,-0.2250099182128906,
988,988,3988,2021-09-24 17:11:15.943,-0.2409966786702474,
989,989,3992,2021-09-24 17:11:15.947,-0.2262051900227865,
990,990,3996,2021-09-24 17:11:15.951,-0.2390543619791666,
991,991,4000,2021-09-24 17:11:15.955,-0.2326297760009766,
992,992,4004,2021-09-24 17:11:15.959,-0.2257569630940755,
993,993,4008,2021-09-24 17:11:15.963,-0.2489153544108073,
994,994,4012,2021-09-24 17:11:15.967,-0.2429389953613281,
995,995,4016,2021-09-24 17:11:15.971,-0.2529493967692057,
996,996,4020,2021-09-24 17:11:15.975,-0.2409966786702474,
997,997,4024,2021-09-24 17:11:15.979,-0.2330780029296875,
998,998,4028,2021-09-24 17:11:15.983,-0.2426401774088541,
999,999,4032,2021-09-24 17:11:15.987,-0.2236652374267578,
1000,1000,4036,2021-09-24 17:11:15.991,-0.2311356862386068,
1001,1001,4040,2021-09-24 17:11:15.995,-0.222619374593099,
1002,1002,4044,2021-09-24 17:11:15.999,-0.2123101552327474,
1003,1003,4048,2021-09-24 17:11:16.003,-0.2320321400960286,
1004,1004,4052,2021-09-24 17:11:16.007,-0.2205276489257812,
1005,1005,4056,2021-09-24 17:11:16.011,-0.2347215016682943,
1006,1006,4060,2021-09-24 17:11:16.015,-0.2251593271891276,
1007,1007,4064,2021-09-24 17:11:16.019,-0.2114137013753255,
1008,1008,4068,2021-09-24 17:11:16.023,-0.2190335591634115,
1009,1009,4072,2021-09-24 17:11:16.027,-0.2031962076822916,
1010,1010,4076,2021-09-24 17:11:16.031,-0.2173900604248047,
1011,1011,4080,2021-09-24 17:11:16.035,-0.2085749308268229,
1012,1012,4084,2021-09-24 17:11:16.039,-0.2017021179199219,
1013,1013,4088,2021-09-24 17:11:16.043,-0.2233664194742838,
1014,1014,4092,2021-09-24 17:11:16.047,-0.2087243398030599,
1015,1015,4096,2021-09-24 17:11:16.051,-0.2084255218505859,
1016,1016,4100,2021-09-24 17:11:16.055,-0.1967716217041016,
1017,1017,4104,2021-09-24 17:11:16.059,-0.1891517639160156,
1018,1018,4108,2021-09-24 17:11:16.063,-0.200955073038737,
1019,1019,4112,2021-09-24 17:11:16.067,-0.186312993367513,
1020,1020,4116,2021-09-24 17:11:16.071,-0.193484624226888,
1021,1021,4120,2021-09-24 17:11:16.075,-0.2100690205891927,
1022,1022,4124,2021-09-24 17:11:16.079,-0.2100690205891927,
1023,1023,4128,2021-09-24 17:11:16.083,-0.2392037709554036,
1024,1024,4132,2021-09-24 17:11:16.087,-0.2317333221435547,
1025,1025,4136,2021-09-24 17:11:16.091,-0.2236652374267578,
1026,1026,4140,2021-09-24 17:11:16.095,-0.2178382873535156,
1027,1027,4144,2021-09-24 17:11:16.099,-0.200656255086263,
1028,1028,4148,2021-09-24 17:11:16.103,-0.2244122823079427,
1029,1029,4152,2021-09-24 17:11:16.107,-0.222320556640625,
1030,1030,4156,2021-09-24 17:11:16.111,-0.2323309580485026,
1031,1031,4160,2021-09-24 17:11:16.115,-0.2430884043375651,
1032,1032,4164,2021-09-24 17:11:16.119,-0.2279980977376302,
1033,1033,4168,2021-09-24 17:11:16.123,-0.2445824940999349,
1034,1034,4172,2021-09-24 17:11:16.127,-0.2281475067138672,
1035,1035,4176,2021-09-24 17:11:16.131,-0.2302392323811849,
1036,1036,4180,2021-09-24 17:11:16.135,-0.2317333221435547,
1037,1037,4184,2021-09-24 17:11:16.139,-0.2161947886149088,
1038,1038,4188,2021-09-24 17:11:16.143,-0.2311356862386068,
1039,1039,4192,2021-09-24 17:11:16.147,-0.2141030629475911,
1040,1040,4196,2021-09-24 17:11:16.151,-0.2147006988525391,
1041,1041,4200,2021-09-24 17:11:16.155,-0.2163441975911458,
1042,1042,4204,2021-09-24 17:11:16.159,-0.2048397064208984,
1043,1043,4208,2021-09-24 17:11:16.163,-0.2284463246663411,
1044,1044,4212,2021-09-24 17:11:16.167,-0.2233664194742838,
1045,1045,4216,2021-09-24 17:11:16.171,-0.2308368682861328,
1046,1046,4220,2021-09-24 17:11:16.175,-0.2327791849772135,
1047,1047,4224,2021-09-24 17:11:16.179,-0.2054373423258463,
1048,1048,4228,2021-09-24 17:11:16.183,-0.2112642923990885,
1049,1049,4232,2021-09-24 17:11:16.187,-0.2003574371337891,
1050,1050,4236,2021-09-24 17:11:16.191,-0.2045408884684245,
1051,1051,4240,2021-09-24 17:11:16.195,-0.222469965616862,
1052,1052,4244,2021-09-24 17:11:16.199,-0.2205276489257812,
1053,1053,4248,2021-09-24 17:11:16.203,-0.2401002248128255,
1054,1054,4252,2021-09-24 17:11:16.207,-0.2248605092366536,
1055,1055,4256,2021-09-24 17:11:16.211,-0.2247111002604166,
1056,1056,4260,2021-09-24 17:11:16.215,-0.2288945515950521,
1057,1057,4264,2021-09-24 17:11:16.219,-0.2109654744466146,
1058,1058,4268,2021-09-24 17:11:16.223,-0.2285957336425781,
1059,1059,4272,2021-09-24 17:11:16.227,-0.222619374593099,
1060,1060,4276,2021-09-24 17:11:16.231,-0.2272510528564453,
1061,1061,4280,2021-09-24 17:11:16.235,-0.2290439605712891,
1062,1062,4284,2021-09-24 17:11:16.239,-0.2185853322347005,
1063,1063,4288,2021-09-24 17:11:16.243,-0.236514409383138,
1064,1064,4292,2021-09-24 17:11:16.247,-0.2145512898763021,
1065,1065,4296,2021-09-24 17:11:16.251,-0.2033456166585286,
1066,1066,4300,2021-09-24 17:11:16.255,-0.1957257588704427,
1067,1067,4304,2021-09-24 17:11:16.259,-0.1695791880289713,
1068,1068,4308,2021-09-24 17:11:16.263,-0.1881059010823567,
1069,1069,4312,2021-09-24 17:11:16.267,-0.1843706766764323,
1070,1070,4316,2021-09-24 17:11:16.271,-0.1991621653238932,
1071,1071,4320,2021-09-24 17:11:16.275,-0.2285957336425781,
1072,1072,4324,2021-09-24 17:11:16.279,-0.2372614542643229,
1073,1073,4328,2021-09-24 17:11:16.283,-0.2631092071533203,
1074,1074,4332,2021-09-24 17:11:16.287,-0.2538458506266276,
1075,1075,4336,2021-09-24 17:11:16.291,-0.2601210276285807,
1076,1076,4340,2021-09-24 17:11:16.295,-0.2631092071533203,
1077,1077,4344,2021-09-24 17:11:16.299,-0.2357673645019531,
1078,1078,4348,2021-09-24 17:11:16.303,-0.2389049530029297,
1079,1079,4352,2021-09-24 17:11:16.307,-0.2202288309733073,
1080,1080,4356,2021-09-24 17:11:16.311,-0.2166430155436198,
1081,1081,4360,2021-09-24 17:11:16.315,-0.2175394694010416,
1082,1082,4364,2021-09-24 17:11:16.319,-0.1985645294189453,
1083,1083,4368,2021-09-24 17:11:16.323,-0.2160453796386719,
1084,1084,4372,2021-09-24 17:11:16.327,-0.2034950256347656,
1085,1085,4376,2021-09-24 17:11:16.331,-0.1955763498942057,
1086,1086,4380,2021-09-24 17:11:16.335,-0.1964728037516276,
1087,1087,4384,2021-09-24 17:11:16.339,-0.1901976267496745,
1088,1088,4388,2021-09-24 17:11:16.343,-0.21514892578125,
1089,1089,4392,2021-09-24 17:11:16.347,-0.2202288309733073,
1090,1090,4396,2021-09-24 17:11:16.351,-0.2483177185058594,
1091,1091,4400,2021-09-24 17:11:16.355,-0.2759583791097005,
1092,1092,4404,2021-09-24 17:11:16.359,-0.286566416422526,
1093,1093,4408,2021-09-24 17:11:16.363,-0.3140576680501302,
1094,1094,4412,2021-09-24 17:11:16.367,-0.258626937866211,
1095,1095,4416,2021-09-24 17:11:16.371,-0.1334222157796224,
1096,1096,4420,2021-09-24 17:11:16.375,0.0398921966552734,
1097,1097,4424,2021-09-24 17:11:16.379,0.2375602722167969,
1098,1098,4428,2021-09-24 17:11:16.383,0.3549957275390625,
1099,1099,4432,2021-09-24 17:11:16.387,0.3735224405924479,
1100,1100,4436,2021-09-24 17:11:16.391,0.1819801330566406,
1101,1101,4440,2021-09-24 17:11:16.395,-0.1673380533854166,
1102,1102,4444,2021-09-24 17:11:16.399,-0.6720415751139324,
1103,1103,4448,2021-09-24 17:11:16.403,-1.1818250020345054,
1104,1104,4452,2021-09-24 17:11:16.407,-1.4267063140869145,
1105,1105,4456,2021-09-24 17:11:16.411,-1.3600699106852214,
1106,1106,4460,2021-09-24 17:11:16.415,-0.9527810414632164,
1107,1107,4464,2021-09-24 17:11:16.419,-0.3921985626220703,
1108,1108,4468,2021-09-24 17:11:16.423,0.0194231669108072,
1109,1109,4472,2021-09-24 17:11:16.427,0.236663818359375,
1110,1110,4476,2021-09-24 17:11:16.431,0.2625115712483724,
1111,1111,4480,2021-09-24 17:11:16.435,0.1990127563476562,
1112,1112,4484,2021-09-24 17:11:16.439,0.1323763529459635,Start
1113,1113,4488,2021-09-24 17:11:16.443,0.035858154296875,
1114,1114,4492,2021-09-24 17:11:16.447,-0.0274912516276041,
1115,1115,4496,2021-09-24 17:11:16.451,-0.0791867574055989,
1116,1116,4500,2021-09-24 17:11:16.455,-0.1174354553222656,
1117,1117,4504,2021-09-24 17:11:16.459,-0.1269976298014323,
1118,1118,4508,2021-09-24 17:11:16.463,-0.1704756418863932,
1119,1119,4512,2021-09-24 17:11:16.467,-0.1912434895833333,
1120,1120,4516,2021-09-24 17:11:16.471,-0.2241134643554687,
1121,1121,4520,2021-09-24 17:11:16.475,-0.243536631266276,
1122,1122,4524,2021-09-24 17:11:16.479,-0.2318827311197916,
1123,1123,4528,2021-09-24 17:11:16.483,-0.2451801300048828,
1124,1124,4532,2021-09-24 17:11:16.487,-0.2294921875,
1125,1125,4536,2021-09-24 17:11:16.491,-0.2329285939534505,
1126,1126,4540,2021-09-24 17:11:16.495,-0.2421919504801432,
1127,1127,4544,2021-09-24 17:11:16.499,-0.2386061350504557,
1128,1128,4548,2021-09-24 17:11:16.503,-0.2569834391276042,
1129,1129,4552,2021-09-24 17:11:16.507,-0.2417437235514323,
1130,1130,4556,2021-09-24 17:11:16.511,-0.2487659454345703,
1131,1131,4560,2021-09-24 17:11:16.515,-0.2574316660563151,
1132,1132,4564,2021-09-24 17:11:16.519,-0.2406978607177734,
1133,1133,4568,2021-09-24 17:11:16.523,-0.251007080078125,
1134,1134,4572,2021-09-24 17:11:16.527,-0.2330780029296875,
1135,1135,4576,2021-09-24 17:11:16.531,-0.2272510528564453,
1136,1136,4580,2021-09-24 17:11:16.535,-0.222619374593099,
1137,1137,4584,2021-09-24 17:11:16.539,-0.1957257588704427,
1138,1138,4588,2021-09-24 17:11:16.543,-0.207678476969401,
1139,1139,4592,2021-09-24 17:11:16.547,-0.2012538909912109,
1140,1140,4596,2021-09-24 17:11:16.551,-0.2126089731852213,
1141,1141,4600,2021-09-24 17:11:16.555,-0.229193369547526,
1142,1142,4604,2021-09-24 17:11:16.559,-0.2135054270426432,
1143,1143,4608,2021-09-24 17:11:16.563,-0.2236652374267578,
1144,1144,4612,2021-09-24 17:11:16.567,-0.2036444346110026,
1145,1145,4616,2021-09-24 17:11:16.571,-0.2106666564941406,
1146,1146,4620,2021-09-24 17:11:16.575,-0.2265040079752604,
1147,1147,4624,2021-09-24 17:11:16.579,-0.2242628733317057,
1148,1148,4628,2021-09-24 17:11:16.583,-0.2487659454345703,
1149,1149,4632,2021-09-24 17:11:16.587,-0.2371120452880859,
1150,1150,4636,2021-09-24 17:11:16.591,-0.236813227335612,
1151,1151,4640,2021-09-24 17:11:16.595,-0.2372614542643229,
1152,1152,4644,2021-09-24 17:11:16.599,-0.2199300130208333,
1153,1153,4648,2021-09-24 17:11:16.603,-0.2332274119059245,
1154,1154,4652,2021-09-24 17:11:16.607,-0.2126089731852213,
1155,1155,4656,2021-09-24 17:11:16.611,-0.2094713846842448,
1156,1156,4660,2021-09-24 17:11:16.615,-0.2147006988525391,
1157,1157,4664,2021-09-24 17:11:16.619,-0.2063337961832682,
1158,1158,4668,2021-09-24 17:11:16.623,-0.2345720926920573,
1159,1159,4672,2021-09-24 17:11:16.627,-0.2308368682861328,
1160,1160,4676,2021-09-24 17:11:16.631,-0.2387555440266927,
1161,1161,4680,2021-09-24 17:11:16.635,-0.2450307210286458,
1162,1162,4684,2021-09-24 17:11:16.639,-0.229641596476237,
1163,1163,4688,2021-09-24 17:11:16.643,-0.2520529429117839,
1164,1164,4692,2021-09-24 17:11:16.647,-0.2403990427652995,
1165,1165,4696,2021-09-24 17:11:16.651,-0.2433872222900391,
1166,1166,4700,2021-09-24 17:11:16.655,-0.2504094441731771,
1167,1167,4704,2021-09-24 17:11:16.659,-0.2327791849772135,
1168,1168,4708,2021-09-24 17:11:16.663,-0.2481683095296224,
1169,1169,4712,2021-09-24 17:11:16.667,-0.2318827311197916,
1170,1170,4716,2021-09-24 17:11:16.671,-0.2163441975911458,
1171,1171,4720,2021-09-24 17:11:16.675,-0.2049891153971354,
1172,1172,4724,2021-09-24 17:11:16.679,-0.1909446716308594,
1173,1173,4728,2021-09-24 17:11:16.683,-0.2123101552327474,
1174,1174,4732,2021-09-24 17:11:16.687,-0.2045408884684245,
1175,1175,4736,2021-09-24 17:11:16.691,-0.2103678385416666,
1176,1176,4740,2021-09-24 17:11:16.695,-0.2117125193277995,
1177,1177,4744,2021-09-24 17:11:16.699,-0.1904964447021484,
1178,1178,4748,2021-09-24 17:11:16.703,-0.2020009358723958,
1179,1179,4752,2021-09-24 17:11:16.707,-0.1893011728922526,
1180,1180,4756,2021-09-24 17:11:16.711,-0.1969210306803385,
1181,1181,4760,2021-09-24 17:11:16.715,-0.2100690205891927,
1182,1182,4764,2021-09-24 17:11:16.719,-0.1918411254882812,
1183,1183,4768,2021-09-24 17:11:16.723,-0.2017021179199219,
1184,1184,4772,2021-09-24 17:11:16.727,-0.1855659484863281,
1185,1185,4776,2021-09-24 17:11:16.731,-0.2012538909912109,
1186,1186,4780,2021-09-24 17:11:16.735,-0.2274004618326823,
1187,1187,4784,2021-09-24 17:11:16.739,-0.2300898234049479,
1188,1188,4788,2021-09-24 17:11:16.743,-0.2556387583414714,
1189,1189,4792,2021-09-24 17:11:16.747,-0.2285957336425781,
1190,1190,4796,2021-09-24 17:11:16.751,-0.2126089731852213,
1191,1191,4800,2021-09-24 17:11:16.755,-0.2115631103515625,
1192,1192,4804,2021-09-24 17:11:16.759,-0.2024491628011068,
1193,1193,4808,2021-09-24 17:11:16.763,-0.2378590901692708,
1194,1194,4812,2021-09-24 17:11:16.767,-0.2392037709554036,
1195,1195,4816,2021-09-24 17:11:16.771,-0.2424907684326172,
1196,1196,4820,2021-09-24 17:11:16.775,-0.2469730377197266,
1197,1197,4824,2021-09-24 17:11:16.779,-0.2290439605712891,
1198,1198,4828,2021-09-24 17:11:16.783,-0.2339744567871094,
1199,1199,4832,2021-09-24 17:11:16.787,-0.2087243398030599,
1200,1200,4836,2021-09-24 17:11:16.791,-0.201104482014974,
1201,1201,4840,2021-09-24 17:11:16.795,-0.2063337961832682,
1202,1202,4844,2021-09-24 17:11:16.799,-0.2012538909912109,
1203,1203,4848,2021-09-24 17:11:16.803,-0.2326297760009766,
1204,1204,4852,2021-09-24 17:11:16.807,-0.2338250478108724,
1205,1205,4856,2021-09-24 17:11:16.811,-0.2335262298583984,
1206,1206,4860,2021-09-24 17:11:16.815,-0.2354685465494791,
1207,1207,4864,2021-09-24 17:11:16.819,-0.2202288309733073,
1208,1208,4868,2021-09-24 17:11:16.823,-0.236514409383138,
1209,1209,4872,2021-09-24 17:11:16.827,-0.2305380503336588,
1210,1210,4876,2021-09-24 17:11:16.831,-0.2427895863850911,
1211,1211,4880,2021-09-24 17:11:16.835,-0.2456283569335937,
1212,1212,4884,2021-09-24 17:11:16.839,-0.2141030629475911,
1213,1213,4888,2021-09-24 17:11:16.843,-0.2132066090901693,
1214,1214,4892,2021-09-24 17:11:16.847,-0.1909446716308594,
1215,1215,4896,2021-09-24 17:11:16.851,-0.1895999908447266,
1216,1216,4900,2021-09-24 17:11:16.855,-0.2022997538248698,
1217,1217,4904,2021-09-24 17:11:16.859,-0.2015527089436849,
1218,1218,4908,2021-09-24 17:11:16.863,-0.2244122823079427,
1219,1219,4912,2021-09-24 17:11:16.867,-0.2099196116129557,
1220,1220,4916,2021-09-24 17:11:16.871,-0.2124595642089844,
1221,1221,4920,2021-09-24 17:11:16.875,-0.2178382873535156,
1222,1222,4924,2021-09-24 17:11:16.879,-0.207827885945638,
1223,1223,4928,2021-09-24 17:11:16.883,-0.2308368682861328,
1224,1224,4932,2021-09-24 17:11:16.887,-0.2230676015218099,
1225,1225,4936,2021-09-24 17:11:16.891,-0.2259063720703125,
1226,1226,4940,2021-09-24 17:11:16.895,-0.2245616912841797,
1227,1227,4944,2021-09-24 17:11:16.899,-0.2061843872070312,
1228,1228,4948,2021-09-24 17:11:16.903,-0.2336756388346354,
1229,1229,4952,2021-09-24 17:11:16.907,-0.229641596476237,
1230,1230,4956,2021-09-24 17:11:16.911,-0.2338250478108724,
1231,1231,4960,2021-09-24 17:11:16.915,-0.2329285939534505,
1232,1232,4964,2021-09-24 17:11:16.919,-0.2028973897298177,
1233,1233,4968,2021-09-24 17:11:16.923,-0.2217229207356771,
1234,1234,4972,2021-09-24 17:11:16.927,-0.2185853322347005,
1235,1235,4976,2021-09-24 17:11:16.931,-0.2250099182128906,
1236,1236,4980,2021-09-24 17:11:16.935,-0.2347215016682943,
1237,1237,4984,2021-09-24 17:11:16.939,-0.2254581451416016,
1238,1238,4988,2021-09-24 17:11:16.943,-0.2429389953613281,
1239,1239,4992,2021-09-24 17:11:16.947,-0.2194817860921224,
1240,1240,4996,2021-09-24 17:11:16.951,-0.2164936065673828,
1241,1241,5000,2021-09-24 17:11:16.955,-0.2257569630940755,
1242,1242,5004,2021-09-24 17:11:16.959,-0.2111148834228516,
1243,1243,5008,2021-09-24 17:11:16.963,-0.2290439605712891,
1244,1244,5012,2021-09-24 17:11:16.967,-0.2214241027832031,
1245,1245,5016,2021-09-24 17:11:16.971,-0.236813227335612,
1246,1246,5020,2021-09-24 17:11:16.975,-0.2386061350504557,
1247,1247,5024,2021-09-24 17:11:16.979,-0.2096207936604818,
1248,1248,5028,2021-09-24 17:11:16.983,-0.2066326141357422,
1249,1249,5032,2021-09-24 17:11:16.987,-0.1671886444091797,
1250,1250,5036,2021-09-24 17:11:16.991,-0.1639016469319661,
1251,1251,5040,2021-09-24 17:11:16.995,-0.1913928985595703,
1252,1252,5044,2021-09-24 17:11:16.999,-0.2105172475179036,
1253,1253,5048,2021-09-24 17:11:17.003,-0.2581787109375,
1254,1254,5052,2021-09-24 17:11:17.007,-0.251455307006836,
1255,1255,5056,2021-09-24 17:11:17.011,-0.2495129903157552,
1256,1256,5060,2021-09-24 17:11:17.015,-0.2396519978841146,
1257,1257,5064,2021-09-24 17:11:17.019,-0.2133560180664062,
1258,1258,5068,2021-09-24 17:11:17.023,-0.2354685465494791,
1259,1259,5072,2021-09-24 17:11:17.027,-0.2299404144287109,
1260,1260,5076,2021-09-24 17:11:17.031,-0.2372614542643229,
1261,1261,5080,2021-09-24 17:11:17.035,-0.2401002248128255,
1262,1262,5084,2021-09-24 17:11:17.039,-0.2160453796386719,
1263,1263,5088,2021-09-24 17:11:17.043,-0.222320556640625,
1264,1264,5092,2021-09-24 17:11:17.047,-0.2108160654703776,
1265,1265,5096,2021-09-24 17:11:17.051,-0.2245616912841797,
1266,1266,5100,2021-09-24 17:11:17.055,-0.2399508158365885,
1267,1267,5104,2021-09-24 17:11:17.059,-0.2278486887613932,
1268,1268,5108,2021-09-24 17:11:17.063,-0.2374108632405599,
1269,1269,5112,2021-09-24 17:11:17.067,-0.2126089731852213,
1270,1270,5116,2021-09-24 17:11:17.071,-0.2045408884684245,
1271,1271,5120,2021-09-24 17:11:17.075,-0.2233664194742838,
1272,1272,5124,2021-09-24 17:11:17.079,-0.2063337961832682,
1273,1273,5128,2021-09-24 17:11:17.083,-0.2105172475179036,
1274,1274,5132,2021-09-24 17:11:17.087,-0.2067820231119791,
1275,1275,5136,2021-09-24 17:11:17.091,-0.2170912424723307,
1276,1276,5140,2021-09-24 17:11:17.095,-0.251156489054362,
1277,1277,5144,2021-09-24 17:11:17.099,-0.1961739857991536,
1278,1278,5148,2021-09-24 17:11:17.103,-0.0906912485758463,
1279,1279,5152,2021-09-24 17:11:17.107,0.1012992858886718,
1280,1280,5156,2021-09-24 17:11:17.111,0.2880605061848958,
1281,1281,5160,2021-09-24 17:11:17.115,0.3396066029866537,
1282,1282,5164,2021-09-24 17:11:17.119,0.244134267171224,
1283,1283,5168,2021-09-24 17:11:17.123,-0.0309276580810546,
1284,1284,5172,2021-09-24 17:11:17.127,-0.4219309488932292,
1285,1285,5176,2021-09-24 17:11:17.131,-0.9000396728515626,
1286,1286,5180,2021-09-24 17:11:17.135,-1.298364003499349,
1287,1287,5184,2021-09-24 17:11:17.139,-1.3905493418375652,
1288,1288,5188,2021-09-24 17:11:17.143,-1.1659876505533855,
1289,1289,5192,2021-09-24 17:11:17.147,-0.6949011484781902,
1290,1290,5196,2021-09-24 17:11:17.151,-0.1975186665852865,
1291,1291,5200,2021-09-24 17:11:17.155,0.1153437296549479,
1292,1292,5204,2021-09-24 17:11:17.159,0.2574316660563151,
1293,1293,5208,2021-09-24 17:11:17.163,0.2338250478108724,
1294,1294,5212,2021-09-24 17:11:17.167,0.1662921905517578,
1295,1295,5216,2021-09-24 17:11:17.171,0.1014486948649088,
1296,1296,5220,2021-09-24 17:11:17.175,0.0231583913167317,
1297,1297,5224,2021-09-24 17:11:17.179,-0.013895034790039,
1298,1298,5228,2021-09-24 17:11:17.183,-0.0654411315917968,
1299,1299,5232,2021-09-24 17:11:17.187,-0.1053333282470703,
1300,1300,5236,2021-09-24 17:11:17.191,-0.1356633504231771,
1301,1301,5240,2021-09-24 17:11:17.195,-0.1903470357259114,
1302,1302,5244,2021-09-24 17:11:17.199,-0.2145512898763021,
1303,1303,5248,2021-09-24 17:11:17.203,-0.2475706736246745,
1304,1304,5252,2021-09-24 17:11:17.207,-0.2345720926920573,
1305,1305,5256,2021-09-24 17:11:17.211,-0.222469965616862,
1306,1306,5260,2021-09-24 17:11:17.215,-0.2526505788167318,
1307,1307,5264,2021-09-24 17:11:17.219,-0.251007080078125,
1308,1308,5268,2021-09-24 17:11:17.223,-0.2734184265136719,
1309,1309,5272,2021-09-24 17:11:17.227,-0.272372563680013,
1310,1310,5276,2021-09-24 17:11:17.231,-0.2566846211751302,
1311,1311,5280,2021-09-24 17:11:17.235,-0.258029301961263,
1312,1312,5284,2021-09-24 17:11:17.239,-0.2218723297119141,
1313,1313,5288,2021-09-24 17:11:17.243,-0.2251593271891276,
1314,1314,5292,2021-09-24 17:11:17.247,-0.2194817860921224,
1315,1315,5296,2021-09-24 17:11:17.251,-0.2141030629475911,
1316,1316,5300,2021-09-24 17:11:17.255,-0.2412954966227213,
1317,1317,5304,2021-09-24 17:11:17.259,-0.2339744567871094,
1318,1318,5308,2021-09-24 17:11:17.263,-0.2489153544108073,
1319,1319,5312,2021-09-24 17:11:17.267,-0.2390543619791666,
1320,1320,5316,2021-09-24 17:11:17.271,-0.2127583821614583,
1321,1321,5320,2021-09-24 17:11:17.275,-0.2185853322347005,
1322,1322,5324,2021-09-24 17:11:17.279,-0.2046902974446615,
1323,1323,5328,2021-09-24 17:11:17.283,-0.2235158284505208,
1324,1324,5332,2021-09-24 17:11:17.287,-0.2257569630940755,
1325,1325,5336,2021-09-24 17:11:17.291,-0.2229181925455729,
1326,1326,5340,2021-09-24 17:11:17.295,-0.2398014068603516,
1327,1327,5344,2021-09-24 17:11:17.299,-0.2069314320882161,
1328,1328,5348,2021-09-24 17:11:17.303,-0.1991621653238932,
1329,1329,5352,2021-09-24 17:11:17.307,-0.1957257588704427,
1330,1330,5356,2021-09-24 17:11:17.311,-0.2012538909912109,
1331,1331,5360,2021-09-24 17:11:17.315,-0.2336756388346354,
1332,1332,5364,2021-09-24 17:11:17.319,-0.222021738688151,
1333,1333,5368,2021-09-24 17:11:17.323,-0.2381579081217448,
1334,1334,5372,2021-09-24 17:11:17.327,-0.2321815490722656,
1335,1335,5376,2021-09-24 17:11:17.331,-0.2085749308268229,
1336,1336,5380,2021-09-24 17:11:17.335,-0.2197806040445963,
1337,1337,5384,2021-09-24 17:11:17.339,-0.2245616912841797,
1338,1338,5388,2021-09-24 17:11:17.343,-0.287014643351237,
1339,1339,5392,2021-09-24 17:11:17.347,-0.3180917104085287,
1340,1340,5396,2021-09-24 17:11:17.351,-0.3018061319986979,
1341,1341,5400,2021-09-24 17:11:17.355,-0.2720737457275391,
1342,1342,5404,2021-09-24 17:11:17.359,-0.1927375793457031,
1343,1343,5408,2021-09-24 17:11:17.363,-0.1761531829833984,
1344,1344,5412,2021-09-24 17:11:17.367,-0.1709238688151041,
1345,1345,5416,2021-09-24 17:11:17.371,-0.1752567291259766,
1346,1346,5420,2021-09-24 17:11:17.375,-0.2155971527099609,
1347,1347,5424,2021-09-24 17:11:17.379,-0.215447743733724,
1348,1348,5428,2021-09-24 17:11:17.383,-0.236813227335612,
1349,1349,5432,2021-09-24 17:11:17.387,-0.2227687835693359,
1350,1350,5436,2021-09-24 17:11:17.391,-0.2022997538248698,
1351,1351,5440,2021-09-24 17:11:17.395,-0.2312850952148437,
1352,1352,5444,2021-09-24 17:11:17.399,-0.243984858194987,
1353,1353,5448,2021-09-24 17:11:17.403,-0.2762571970621745,
1354,1354,5452,2021-09-24 17:11:17.407,-0.265350341796875,
1355,1355,5456,2021-09-24 17:11:17.411,-0.2315839131673177,
1356,1356,5460,2021-09-24 17:11:17.415,-0.2342732747395833,
1357,1357,5464,2021-09-24 17:11:17.419,-0.2043914794921875,
1358,1358,5468,2021-09-24 17:11:17.423,-0.2060349782307943,
1359,1359,5472,2021-09-24 17:11:17.427,-0.193484624226888,
1360,1360,5476,2021-09-24 17:11:17.431,-0.1797389984130859,
1361,1361,5480,2021-09-24 17:11:17.435,-0.2039432525634766,
1362,1362,5484,2021-09-24 17:11:17.439,-0.1915423075358073,
1363,1363,5488,2021-09-24 17:11:17.443,-0.2042420705159505,
1364,1364,5492,2021-09-24 17:11:17.447,-0.2017021179199219,
1365,1365,5496,2021-09-24 17:11:17.451,-0.1966222127278646,
1366,1366,5500,2021-09-24 17:11:17.455,-0.2279980977376302,
1367,1367,5504,2021-09-24 17:11:17.459,-0.2167924245198568,
1368,1368,5508,2021-09-24 17:11:17.463,-0.2209758758544922,
1369,1369,5512,2021-09-24 17:11:17.467,-0.2063337961832682,
1370,1370,5516,2021-09-24 17:11:17.471,-0.1837730407714844,
1371,1371,5520,2021-09-24 17:11:17.475,-0.200506846110026,
1372,1372,5524,2021-09-24 17:11:17.479,-0.1988633473714193,
1373,1373,5528,2021-09-24 17:11:17.483,-0.2263545989990234,
1374,1374,5532,2021-09-24 17:11:17.487,-0.229641596476237,
1375,1375,5536,2021-09-24 17:11:17.491,-0.2257569630940755,
1376,1376,5540,2021-09-24 17:11:17.495,-0.2459271748860677,
1377,1377,5544,2021-09-24 17:11:17.499,-0.2203782399495443,
1378,1378,5548,2021-09-24 17:11:17.503,-0.2233664194742838,
1379,1379,5552,2021-09-24 17:11:17.507,-0.214850107828776,
1380,1380,5556,2021-09-24 17:11:17.511,-0.2034950256347656,
1381,1381,5560,2021-09-24 17:11:17.515,-0.2265040079752604,
1382,1382,5564,2021-09-24 17:11:17.519,-0.2184359232584635,
1383,1383,5568,2021-09-24 17:11:17.523,-0.2478694915771484,
1384,1384,5572,2021-09-24 17:11:17.527,-0.2517541249593099,
1385,1385,5576,2021-09-24 17:11:17.531,-0.2395025889078776,
1386,1386,5580,2021-09-24 17:11:17.535,-0.2463754018147786,
1387,1387,5584,2021-09-24 17:11:17.539,-0.2172406514485677,
1388,1388,5588,2021-09-24 17:11:17.543,-0.2230676015218099,
1389,1389,5592,2021-09-24 17:11:17.547,-0.2251593271891276,
1390,1390,5596,2021-09-24 17:11:17.551,-0.2211252848307291,
1391,1391,5600,2021-09-24 17:11:17.555,-0.2408472696940104,
1392,1392,5604,2021-09-24 17:11:17.559,-0.2130572001139323,
1393,1393,5608,2021-09-24 17:11:17.563,-0.2040926615397135,
1394,1394,5612,2021-09-24 17:11:17.567,-0.1846694946289062,
1395,1395,5616,2021-09-24 17:11:17.571,-0.1804860432942708,
1396,1396,5620,2021-09-24 17:11:17.575,-0.2161947886149088,
1397,1397,5624,2021-09-24 17:11:17.579,-0.2106666564941406,
1398,1398,5628,2021-09-24 17:11:17.583,-0.2287451426188151,
1399,1399,5632,2021-09-24 17:11:17.587,-0.2194817860921224,
1400,1400,5636,2021-09-24 17:11:17.591,-0.2138042449951172,
1401,1401,5640,2021-09-24 17:11:17.595,-0.2380084991455078,
1402,1402,5644,2021-09-24 17:11:17.599,-0.2294921875,
1403,1403,5648,2021-09-24 17:11:17.603,-0.2533976236979167,
1404,1404,5652,2021-09-24 17:11:17.607,-0.2496623992919922,
1405,1405,5656,2021-09-24 17:11:17.611,-0.2205276489257812,
1406,1406,5660,2021-09-24 17:11:17.615,-0.2227687835693359,
1407,1407,5664,2021-09-24 17:11:17.619,-0.200955073038737,
1408,1408,5668,2021-09-24 17:11:17.623,-0.2172406514485677,
1409,1409,5672,2021-09-24 17:11:17.627,-0.2102184295654297,
1410,1410,5676,2021-09-24 17:11:17.631,-0.1970704396565755,
1411,1411,5680,2021-09-24 17:11:17.635,-0.2173900604248047,
1412,1412,5684,2021-09-24 17:11:17.639,-0.2105172475179036,
1413,1413,5688,2021-09-24 17:11:17.643,-0.2323309580485026,
1414,1414,5692,2021-09-24 17:11:17.647,-0.2288945515950521,
1415,1415,5696,2021-09-24 17:11:17.651,-0.2157465616861979,
1416,1416,5700,2021-09-24 17:11:17.655,-0.2311356862386068,
1417,1417,5704,2021-09-24 17:11:17.659,-0.2102184295654297,
1418,1418,5708,2021-09-24 17:11:17.663,-0.2266534169514974,
1419,1419,5712,2021-09-24 17:11:17.667,-0.2317333221435547,
1420,1420,5716,2021-09-24 17:11:17.671,-0.2324803670247396,
1421,1421,5720,2021-09-24 17:11:17.675,-0.2409966786702474,
1422,1422,5724,2021-09-24 17:11:17.679,-0.207827885945638,
1423,1423,5728,2021-09-24 17:11:17.683,-0.2160453796386719,
1424,1424,5732,2021-09-24 17:11:17.687,-0.2164936065673828,
1425,1425,5736,2021-09-24 17:11:17.691,-0.208276112874349,
1426,1426,5740,2021-09-24 17:11:17.695,-0.2303886413574219,
1427,1427,5744,2021-09-24 17:11:17.699,-0.2052879333496094,
1428,1428,5748,2021-09-24 17:11:17.703,-0.2112642923990885,
1429,1429,5752,2021-09-24 17:11:17.707,-0.2033456166585286,
1430,1430,5756,2021-09-24 17:11:17.711,-0.1890023549397786,
1431,1431,5760,2021-09-24 17:11:17.715,-0.2036444346110026,
1432,1432,5764,2021-09-24 17:11:17.719,-0.1857153574625651,
1433,1433,5768,2021-09-24 17:11:17.723,-0.2142524719238281,
1434,1434,5772,2021-09-24 17:11:17.727,-0.2294921875,
1435,1435,5776,2021-09-24 17:11:17.731,-0.2300898234049479,
1436,1436,5780,2021-09-24 17:11:17.735,-0.2459271748860677,
1437,1437,5784,2021-09-24 17:11:17.739,-0.2327791849772135,
1438,1438,5788,2021-09-24 17:11:17.743,-0.2489153544108073,
1439,1439,5792,2021-09-24 17:11:17.747,-0.2498118082682291,
1440,1440,5796,2021-09-24 17:11:17.751,-0.2396519978841146,
1441,1441,5800,2021-09-24 17:11:17.755,-0.2501106262207032,
1442,1442,5804,2021-09-24 17:11:17.759,-0.2187347412109375,
1443,1443,5808,2021-09-24 17:11:17.763,-0.2236652374267578,
1444,1444,5812,2021-09-24 17:11:17.767,-0.2178382873535156,
1445,1445,5816,2021-09-24 17:11:17.771,-0.2105172475179036,
1446,1446,5820,2021-09-24 17:11:17.775,-0.2309862772623698,
1447,1447,5824,2021-09-24 17:11:17.779,-0.2136548360188802,
1448,1448,5828,2021-09-24 17:11:17.783,-0.2194817860921224,
1449,1449,5832,2021-09-24 17:11:17.787,-0.2108160654703776,
1450,1450,5836,2021-09-24 17:11:17.791,-0.1973692576090495,
1451,1451,5840,2021-09-24 17:11:17.795,-0.2096207936604818,
1452,1452,5844,2021-09-24 17:11:17.799,-0.1975186665852865,
1453,1453,5848,2021-09-24 17:11:17.803,-0.2303886413574219,
1454,1454,5852,2021-09-24 17:11:17.807,-0.257879892985026,
1455,1455,5856,2021-09-24 17:11:17.811,-0.2771536509195964,
1456,1456,5860,2021-09-24 17:11:17.815,-0.2849229176839193,
1457,1457,5864,2021-09-24 17:11:17.819,-0.1907952626546224,
1458,1458,5868,2021-09-24 17:11:17.823,-0.057223637898763,
1459,1459,5872,2021-09-24 17:11:17.827,0.1446278889973958,
1460,1460,5876,2021-09-24 17:11:17.831,0.3251139322916667,
1461,1461,5880,2021-09-24 17:11:17.835,0.3557427724202474,
1462,1462,5884,2021-09-24 17:11:17.839,0.243686040242513,
1463,1463,5888,2021-09-24 17:11:17.843,-0.0460179646809895,
1464,1464,5892,2021-09-24 17:11:17.847,-0.466006596883138,
1465,1465,5896,2021-09-24 17:11:17.851,-0.9526316324869792,
1466,1466,5900,2021-09-24 17:11:17.855,-1.3476689656575522,
1467,1467,5904,2021-09-24 17:11:17.859,-1.4153512318929038,
1468,1468,5908,2021-09-24 17:11:17.863,-1.1396916707356772,
1469,1469,5912,2021-09-24 17:11:17.867,-0.6233342488606771,
1470,1470,5916,2021-09-24 17:11:17.871,-0.114447275797526,
1471,1471,5920,2021-09-24 17:11:17.875,0.1677862803141276,
1472,1472,5924,2021-09-24 17:11:17.879,0.2784983317057292,
1473,1473,5928,2021-09-24 17:11:17.883,0.2432378133138021,
1474,1474,5932,2021-09-24 17:11:17.887,0.1709238688151041,
1475,1475,5936,2021-09-24 17:11:17.891,0.0975640614827474,
1476,1476,5940,2021-09-24 17:11:17.895,0.0146420796712239,
1477,1477,5944,2021-09-24 17:11:17.899,-0.0236066182454427,
1478,1478,5948,2021-09-24 17:11:17.903,-0.0847148895263672,
1479,1479,5952,2021-09-24 17:11:17.907,-0.1393985748291016,
1480,1480,5956,2021-09-24 17:11:17.911,-0.1697285970052083,
1481,1481,5960,2021-09-24 17:11:17.915,-0.2182865142822266,
1482,1482,5964,2021-09-24 17:11:17.919,-0.2217229207356771,
1483,1483,5968,2021-09-24 17:11:17.923,-0.2415943145751953,
1484,1484,5972,2021-09-24 17:11:17.927,-0.243686040242513,
1485,1485,5976,2021-09-24 17:11:17.931,-0.2433872222900391,
1486,1486,5980,2021-09-24 17:11:17.935,-0.265499750773112,
1487,1487,5984,2021-09-24 17:11:17.939,-0.2472718556722005,
1488,1488,5988,2021-09-24 17:11:17.943,-0.2581787109375,
1489,1489,5992,2021-09-24 17:11:17.947,-0.2516047159830729,
1490,1490,5996,2021-09-24 17:11:17.951,-0.2350203196207682,
1491,1491,6000,2021-09-24 17:11:17.955,-0.2533976236979167,
1492,1492,6004,2021-09-24 17:11:17.959,-0.236962636311849,
1493,1493,6008,2021-09-24 17:11:17.963,-0.2423413594563802,
1494,1494,6012,2021-09-24 17:11:17.967,-0.2263545989990234,
1495,1495,6016,2021-09-24 17:11:17.971,-0.2022997538248698,
1496,1496,6020,2021-09-24 17:11:17.975,-0.2193323771158854,
1497,1497,6024,2021-09-24 17:11:17.979,-0.207827885945638,
1498,1498,6028,2021-09-24 17:11:17.983,-0.2384567260742187,
1499,1499,6032,2021-09-24 17:11:17.987,-0.2484671274820963,
1500,1500,6036,2021-09-24 17:11:17.991,-0.2403990427652995,
1501,1501,6040,2021-09-24 17:11:17.995,-0.2457777659098307,
1502,1502,6044,2021-09-24 17:11:17.999,-0.200955073038737,
1503,1503,6048,2021-09-24 17:11:18.003,-0.1996103922526041,
1504,1504,6052,2021-09-24 17:11:18.007,-0.2014032999674479,
1505,1505,6056,2021-09-24 17:11:18.011,-0.1988633473714193,
1506,1506,6060,2021-09-24 17:11:18.015,-0.2229181925455729,
1507,1507,6064,2021-09-24 17:11:18.019,-0.2100690205891927,
1508,1508,6068,2021-09-24 17:11:18.023,-0.2393531799316406,
1509,1509,6072,2021-09-24 17:11:18.027,-0.2396519978841146,
1510,1510,6076,2021-09-24 17:11:18.031,-0.2167924245198568,
1511,1511,6080,2021-09-24 17:11:18.035,-0.2121607462565104,
1512,1512,6084,2021-09-24 17:11:18.039,-0.186611811319987,
1513,1513,6088,2021-09-24 17:11:18.043,-0.2194817860921224,
1514,1514,6092,2021-09-24 17:11:18.047,-0.251305898030599,
1515,1515,6096,2021-09-24 17:11:18.051,-0.2669938405354818,
1516,1516,6100,2021-09-24 17:11:18.055,-0.272820790608724,
1517,1517,6104,2021-09-24 17:11:18.059,-0.2202288309733073,
1518,1518,6108,2021-09-24 17:11:18.063,-0.2060349782307943,
1519,1519,6112,2021-09-24 17:11:18.067,-0.1954269409179687,
1520,1520,6116,2021-09-24 17:11:18.071,-0.1869106292724609,
1521,1521,6120,2021-09-24 17:11:18.075,-0.2348709106445312,
1522,1522,6124,2021-09-24 17:11:18.079,-0.2414449055989583,
1523,1523,6128,2021-09-24 17:11:18.083,-0.2504094441731771,
1524,1524,6132,2021-09-24 17:11:18.087,-0.2640056610107422,
1525,1525,6136,2021-09-24 17:11:18.091,-0.2468236287434896,
1526,1526,6140,2021-09-24 17:11:18.095,-0.2592245737711589,
1527,1527,6144,2021-09-24 17:11:18.099,-0.2395025889078776,
1528,1528,6148,2021-09-24 17:11:18.103,-0.2356179555257161,
1529,1529,6152,2021-09-24 17:11:18.107,-0.2417437235514323,
1530,1530,6156,2021-09-24 17:11:18.111,-0.214850107828776,
1531,1531,6160,2021-09-24 17:11:18.115,-0.2357673645019531,
1532,1532,6164,2021-09-24 17:11:18.119,-0.2281475067138672,
1533,1533,6168,2021-09-24 17:11:18.123,-0.2341238657633463,
1534,1534,6172,2021-09-24 17:11:18.127,-0.2477200826009115,
1535,1535,6176,2021-09-24 17:11:18.131,-0.2272510528564453,
1536,1536,6180,2021-09-24 17:11:18.135,-0.2335262298583984,
1537,1537,6184,2021-09-24 17:11:18.139,-0.1919905344645182,
1538,1538,6188,2021-09-24 17:11:18.143,-0.1770496368408203,
1539,1539,6192,2021-09-24 17:11:18.147,-0.1833248138427734,
1540,1540,6196,2021-09-24 17:11:18.151,-0.1658439636230469,
1541,1541,6200,2021-09-24 17:11:18.155,-0.1846694946289062,
1542,1542,6204,2021-09-24 17:11:18.159,-0.1777966817220052,
1543,1543,6208,2021-09-24 17:11:18.163,-0.1900482177734375,
1544,1544,6212,2021-09-24 17:11:18.167,-0.2021503448486328,
1545,1545,6216,2021-09-24 17:11:18.171,-0.1967716217041016,
1546,1546,6220,2021-09-24 17:11:18.175,-0.2284463246663411,
1547,1547,6224,2021-09-24 17:11:18.179,-0.2299404144287109,
1548,1548,6228,2021-09-24 17:11:18.183,-0.2392037709554036,
1549,1549,6232,2021-09-24 17:11:18.187,-0.2335262298583984,
1550,1550,6236,2021-09-24 17:11:18.191,-0.1976680755615234,
1551,1551,6240,2021-09-24 17:11:18.195,-0.2129077911376953,
1552,1552,6244,2021-09-24 17:11:18.199,-0.1984151204427083,
1553,1553,6248,2021-09-24 17:11:18.203,-0.2028973897298177,
1554,1554,6252,2021-09-24 17:11:18.207,-0.222619374593099,
1555,1555,6256,2021-09-24 17:11:18.211,-0.2200794219970703,
1556,1556,6260,2021-09-24 17:11:18.215,-0.2483177185058594,
1557,1557,6264,2021-09-24 17:11:18.219,-0.2335262298583984,
1558,1558,6268,2021-09-24 17:11:18.223,-0.2305380503336588,
1559,1559,6272,2021-09-24 17:11:18.227,-0.243686040242513,
1560,1560,6276,2021-09-24 17:11:18.231,-0.229342778523763,
1561,1561,6280,2021-09-24 17:11:18.235,-0.2463754018147786,
1562,1562,6284,2021-09-24 17:11:18.239,-0.2185853322347005,
1563,1563,6288,2021-09-24 17:11:18.243,-0.2070808410644531,
1564,1564,6292,2021-09-24 17:11:18.247,-0.2235158284505208,
1565,1565,6296,2021-09-24 17:11:18.251,-0.2157465616861979,
1566,1566,6300,2021-09-24 17:11:18.255,-0.2302392323811849,
1567,1567,6304,2021-09-24 17:11:18.259,-0.207678476969401,
1568,1568,6308,2021-09-24 17:11:18.263,-0.2123101552327474,
1569,1569,6312,2021-09-24 17:11:18.267,-0.2244122823079427,
1570,1570,6316,2021-09-24 17:11:18.271,-0.2135054270426432,
1571,1571,6320,2021-09-24 17:11:18.275,-0.2398014068603516,
1572,1572,6324,2021-09-24 17:11:18.279,-0.2241134643554687,
1573,1573,6328,2021-09-24 17:11:18.283,-0.2217229207356771,
1574,1574,6332,2021-09-24 17:11:18.287,-0.236514409383138,
1575,1575,6336,2021-09-24 17:11:18.291,-0.222021738688151,
1576,1576,6340,2021-09-24 17:11:18.295,-0.2320321400960286,
1577,1577,6344,2021-09-24 17:11:18.299,-0.207678476969401,
1578,1578,6348,2021-09-24 17:11:18.303,-0.2051385243733724,
1579,1579,6352,2021-09-24 17:11:18.307,-0.2239640553792318,
1580,1580,6356,2021-09-24 17:11:18.311,-0.215298334757487,
1581,1581,6360,2021-09-24 17:11:18.315,-0.2345720926920573,
1582,1582,6364,2021-09-24 17:11:18.319,-0.207977294921875,
1583,1583,6368,2021-09-24 17:11:18.323,-0.2014032999674479,
1584,1584,6372,2021-09-24 17:11:18.327,-0.2124595642089844,
1585,1585,6376,2021-09-24 17:11:18.331,-0.1997598012288411,
1586,1586,6380,2021-09-24 17:11:18.335,-0.2259063720703125,
1587,1587,6384,2021-09-24 17:11:18.339,-0.2208264668782552,
1588,1588,6388,2021-09-24 17:11:18.343,-0.2308368682861328,
1589,1589,6392,2021-09-24 17:11:18.347,-0.2405484517415365,
1590,1590,6396,2021-09-24 17:11:18.351,-0.2170912424723307,
1591,1591,6400,2021-09-24 17:11:18.355,-0.2333768208821615,
1592,1592,6404,2021-09-24 17:11:18.359,-0.2063337961832682,
1593,1593,6408,2021-09-24 17:11:18.363,-0.2103678385416666,
1594,1594,6412,2021-09-24 17:11:18.367,-0.2321815490722656,
1595,1595,6416,2021-09-24 17:11:18.371,-0.2245616912841797,
1596,1596,6420,2021-09-24 17:11:18.375,-0.2399508158365885,
1597,1597,6424,2021-09-24 17:11:18.379,-0.2123101552327474,
1598,1598,6428,2021-09-24 17:11:18.383,-0.2088737487792969,
1599,1599,6432,2021-09-24 17:11:18.387,-0.2203782399495443,
1600,1600,6436,2021-09-24 17:11:18.391,-0.1945304870605469,
1601,1601,6440,2021-09-24 17:11:18.395,-0.2048397064208984,
1602,1602,6444,2021-09-24 17:11:18.399,-0.1958751678466797,
1603,1603,6448,2021-09-24 17:11:18.403,-0.2114137013753255,
1604,1604,6452,2021-09-24 17:11:18.407,-0.2402496337890625,
1605,1605,6456,2021-09-24 17:11:18.411,-0.2348709106445312,
1606,1606,6460,2021-09-24 17:11:18.415,-0.2613162994384766,
1607,1607,6464,2021-09-24 17:11:18.419,-0.2412954966227213,
1608,1608,6468,2021-09-24 17:11:18.423,-0.2344226837158203,
1609,1609,6472,2021-09-24 17:11:18.427,-0.2444330851236979,
1610,1610,6476,2021-09-24 17:11:18.431,-0.2200794219970703,
1611,1611,6480,2021-09-24 17:11:18.435,-0.2166430155436198,
1612,1612,6484,2021-09-24 17:11:18.439,-0.1742108662923177,
1613,1613,6488,2021-09-24 17:11:18.443,-0.1607640584309896,
1614,1614,6492,2021-09-24 17:11:18.447,-0.1703262329101562,
1615,1615,6496,2021-09-24 17:11:18.451,-0.1598676045735677,
1616,1616,6500,2021-09-24 17:11:18.455,-0.2039432525634766,
1617,1617,6504,2021-09-24 17:11:18.459,-0.2182865142822266,
1618,1618,6508,2021-09-24 17:11:18.463,-0.2569834391276042,
1619,1619,6512,2021-09-24 17:11:18.467,-0.2903016408284505,
1620,1620,6516,2021-09-24 17:11:18.471,-0.2681891123453776,
1621,1621,6520,2021-09-24 17:11:18.475,-0.2669938405354818,
1622,1622,6524,2021-09-24 17:11:18.479,-0.2262051900227865,
1623,1623,6528,2021-09-24 17:11:18.483,-0.2178382873535156,
1624,1624,6532,2021-09-24 17:11:18.487,-0.2287451426188151,
1625,1625,6536,2021-09-24 17:11:18.491,-0.222171147664388,
1626,1626,6540,2021-09-24 17:11:18.495,-0.2677408854166667,
1627,1627,6544,2021-09-24 17:11:18.499,-0.2689361572265625,
1628,1628,6548,2021-09-24 17:11:18.503,-0.2430884043375651,
1629,1629,6552,2021-09-24 17:11:18.507,-0.2049891153971354,
1630,1630,6556,2021-09-24 17:11:18.511,-0.1516501108805338,
1631,1631,6560,2021-09-24 17:11:18.515,-0.1706250508626302,
1632,1632,6564,2021-09-24 17:11:18.519,-0.1873588562011719,
1633,1633,6568,2021-09-24 17:11:18.523,-0.2203782399495443,
1634,1634,6572,2021-09-24 17:11:18.527,-0.250708262125651,
1635,1635,6576,2021-09-24 17:11:18.531,-0.2311356862386068,
1636,1636,6580,2021-09-24 17:11:18.535,-0.2357673645019531,
1637,1637,6584,2021-09-24 17:11:18.539,-0.2094713846842448,
1638,1638,6588,2021-09-24 17:11:18.543,-0.2085749308268229,
1639,1639,6592,2021-09-24 17:11:18.547,-0.2323309580485026,
1640,1640,6596,2021-09-24 17:11:18.551,-0.2372614542643229,
1641,1641,6600,2021-09-24 17:11:18.555,-0.2459271748860677,
1642,1642,6604,2021-09-24 17:11:18.559,-0.1664415995279948,
1643,1643,6608,2021-09-24 17:11:18.563,-0.0448226928710937,
1644,1644,6612,2021-09-24 17:11:18.567,0.1151943206787109,
1645,1645,6616,2021-09-24 17:11:18.571,0.2886581420898438,
1646,1646,6620,2021-09-24 17:11:18.575,0.3195858001708985,
1647,1647,6624,2021-09-24 17:11:18.579,0.2241134643554687,
1648,1648,6628,2021-09-24 17:11:18.583,-0.0397427876790364,
1649,1649,6632,2021-09-24 17:11:18.587,-0.4652595520019532,
1650,1650,6636,2021-09-24 17:11:18.591,-0.9373919169108074,
1651,1651,6640,2021-09-24 17:11:18.595,-1.337359746297201,
1652,1652,6644,2021-09-24 17:11:18.599,-1.4149030049641929,
1653,1653,6648,2021-09-24 17:11:18.603,-1.14253044128418,
1654,1654,6652,2021-09-24 17:11:18.607,-0.6587441762288412,
1655,1655,6656,2021-09-24 17:11:18.611,-0.1352151234944661,
1656,1656,6660,2021-09-24 17:11:18.615,0.1685333251953125,
1657,1657,6664,2021-09-24 17:11:18.619,0.2931404113769532,
1658,1658,6668,2021-09-24 17:11:18.623,0.2768548329671224,
1659,1659,6672,2021-09-24 17:11:18.627,0.1851177215576172,
1660,1660,6676,2021-09-24 17:11:18.631,0.0959205627441406,
1661,1661,6680,2021-09-24 17:11:18.635,-0.0173314412434895,
1662,1662,6684,2021-09-24 17:11:18.639,-0.0660387674967448,
1663,1663,6688,2021-09-24 17:11:18.643,-0.1021957397460937,
1664,1664,6692,2021-09-24 17:11:18.647,-0.1419385274251302,
1665,1665,6696,2021-09-24 17:11:18.651,-0.1388009389241536,
1666,1666,6700,2021-09-24 17:11:18.655,-0.1691309611002604,
1667,1667,6704,2021-09-24 17:11:18.659,-0.1761531829833984,
1668,1668,6708,2021-09-24 17:11:18.663,-0.2063337961832682,
1669,1669,6712,2021-09-24 17:11:18.667,-0.2442836761474609,
1670,1670,6716,2021-09-24 17:11:18.671,-0.2554893493652344,
1671,1671,6720,2021-09-24 17:11:18.675,-0.294186274210612,
1672,1672,6724,2021-09-24 17:11:18.679,-0.2756595611572266,
1673,1673,6728,2021-09-24 17:11:18.683,-0.2535470326741537,
1674,1674,6732,2021-09-24 17:11:18.687,-0.2405484517415365,
1675,1675,6736,2021-09-24 17:11:18.691,-0.2211252848307291,
1676,1676,6740,2021-09-24 17:11:18.695,-0.24383544921875,
1677,1677,6744,2021-09-24 17:11:18.699,-0.236663818359375,
1678,1678,6748,2021-09-24 17:11:18.703,-0.2457777659098307,
1679,1679,6752,2021-09-24 17:11:18.707,-0.2527999877929688,
1680,1680,6756,2021-09-24 17:11:18.711,-0.2302392323811849,
1681,1681,6760,2021-09-24 17:11:18.715,-0.2530988057454427,
1682,1682,6764,2021-09-24 17:11:18.719,-0.2357673645019531,
1683,1683,6768,2021-09-24 17:11:18.723,-0.2179876963297526,
1684,1684,6772,2021-09-24 17:11:18.727,-0.208126703898112,
1685,1685,6776,2021-09-24 17:11:18.731,-0.1840718587239583,
1686,1686,6780,2021-09-24 17:11:18.735,-0.2136548360188802,
1687,1687,6784,2021-09-24 17:11:18.739,-0.214999516805013,
1688,1688,6788,2021-09-24 17:11:18.743,-0.2278486887613932,
1689,1689,6792,2021-09-24 17:11:18.747,-0.2415943145751953,
1690,1690,6796,2021-09-24 17:11:18.751,-0.2268028259277344,
1691,1691,6800,2021-09-24 17:11:18.755,-0.2429389953613281,
1692,1692,6804,2021-09-24 17:11:18.759,-0.2127583821614583,
1693,1693,6808,2021-09-24 17:11:18.763,-0.1890023549397786,
1694,1694,6812,2021-09-24 17:11:18.767,-0.1804860432942708,
1695,1695,6816,2021-09-24 17:11:18.771,-0.1704756418863932,
1696,1696,6820,2021-09-24 17:11:18.775,-0.2218723297119141,
1697,1697,6824,2021-09-24 17:11:18.779,-0.2374108632405599,
1698,1698,6828,2021-09-24 17:11:18.783,-0.2625115712483724,
1699,1699,6832,2021-09-24 17:11:18.787,-0.2720737457275391,
1700,1700,6836,2021-09-24 17:11:18.791,-0.2393531799316406,
1701,1701,6840,2021-09-24 17:11:18.795,-0.2529493967692057,
1702,1702,6844,2021-09-24 17:11:18.799,-0.2300898234049479,
1703,1703,6848,2021-09-24 17:11:18.803,-0.2173900604248047,
1704,1704,6852,2021-09-24 17:11:18.807,-0.2179876963297526,
1705,1705,6856,2021-09-24 17:11:18.811,-0.2045408884684245,
1706,1706,6860,2021-09-24 17:11:18.815,-0.2384567260742187,
1707,1707,6864,2021-09-24 17:11:18.819,-0.236813227335612,
1708,1708,6868,2021-09-24 17:11:18.823,-0.2466742197672526,
1709,1709,6872,2021-09-24 17:11:18.827,-0.250857671101888,
1710,1710,6876,2021-09-24 17:11:18.831,-0.2299404144287109,
1711,1711,6880,2021-09-24 17:11:18.835,-0.2498118082682291,
1712,1712,6884,2021-09-24 17:11:18.839,-0.2395025889078776,
1713,1713,6888,2021-09-24 17:11:18.843,-0.2354685465494791,
1714,1714,6892,2021-09-24 17:11:18.847,-0.2405484517415365,
1715,1715,6896,2021-09-24 17:11:18.851,-0.215447743733724,
1716,1716,6900,2021-09-24 17:11:18.855,-0.2424907684326172,
1717,1717,6904,2021-09-24 17:11:18.859,-0.2372614542643229,
1718,1718,6908,2021-09-24 17:11:18.863,-0.2408472696940104,
1719,1719,6912,2021-09-24 17:11:18.867,-0.2387555440266927,
1720,1720,6916,2021-09-24 17:11:18.871,-0.1940822601318359,
1721,1721,6920,2021-09-24 17:11:18.875,-0.1964728037516276,
1722,1722,6924,2021-09-24 17:11:18.879,-0.1885541280110677,
1723,1723,6928,2021-09-24 17:11:18.883,-0.208276112874349,
1724,1724,6932,2021-09-24 17:11:18.887,-0.2163441975911458,
1725,1725,6936,2021-09-24 17:11:18.891,-0.1842212677001953,
1726,1726,6940,2021-09-24 17:11:18.895,-0.2036444346110026,
1727,1727,6944,2021-09-24 17:11:18.899,-0.1970704396565755,
1728,1728,6948,2021-09-24 17:11:18.903,-0.1894505818684896,
1729,1729,6952,2021-09-24 17:11:18.907,-0.1819801330566406,
1730,1730,6956,2021-09-24 17:11:18.911,-0.1679356892903646,
1731,1731,6960,2021-09-24 17:11:18.915,-0.1981163024902344,
1732,1732,6964,2021-09-24 17:11:18.919,-0.1945304870605469,
1733,1733,6968,2021-09-24 17:11:18.923,-0.2030467987060547,
1734,1734,6972,2021-09-24 17:11:18.927,-0.2100690205891927,
1735,1735,6976,2021-09-24 17:11:18.931,-0.1969210306803385,
1736,1736,6980,2021-09-24 17:11:18.935,-0.2326297760009766,
1737,1737,6984,2021-09-24 17:11:18.939,-0.2387555440266927,
1738,1738,6988,2021-09-24 17:11:18.943,-0.2460765838623047,
1739,1739,6992,2021-09-24 17:11:18.947,-0.2477200826009115,
1740,1740,6996,2021-09-24 17:11:18.951,-0.2247111002604166,
1741,1741,7000,2021-09-24 17:11:18.955,-0.2409966786702474,
1742,1742,7004,2021-09-24 17:11:18.959,-0.2218723297119141,
1743,1743,7008,2021-09-24 17:11:18.963,-0.2318827311197916,
1744,1744,7012,2021-09-24 17:11:18.967,-0.250708262125651,
1745,1745,7016,2021-09-24 17:11:18.971,-0.2336756388346354,
1746,1746,7020,2021-09-24 17:11:18.975,-0.2463754018147786,
1747,1747,7024,2021-09-24 17:11:18.979,-0.2172406514485677,
1748,1748,7028,2021-09-24 17:11:18.983,-0.207827885945638,
1749,1749,7032,2021-09-24 17:11:18.987,-0.2084255218505859,
1750,1750,7036,2021-09-24 17:11:18.991,-0.1855659484863281,
1751,1751,7040,2021-09-24 17:11:18.995,-0.2093219757080078,
1752,1752,7044,2021-09-24 17:11:18.999,-0.2070808410644531,
1753,1753,7048,2021-09-24 17:11:19.003,-0.2200794219970703,
1754,1754,7052,2021-09-24 17:11:19.007,-0.2348709106445312,
1755,1755,7056,2021-09-24 17:11:19.011,-0.2172406514485677,
1756,1756,7060,2021-09-24 17:11:19.015,-0.2375602722167969,
1757,1757,7064,2021-09-24 17:11:19.019,-0.2176888783772786,
1758,1758,7068,2021-09-24 17:11:19.023,-0.2136548360188802,
1759,1759,7072,2021-09-24 17:11:19.027,-0.2285957336425781,
1760,1760,7076,2021-09-24 17:11:19.031,-0.2245616912841797,
1761,1761,7080,2021-09-24 17:11:19.035,-0.2478694915771484,
1762,1762,7084,2021-09-24 17:11:19.039,-0.2245616912841797,
1763,1763,7088,2021-09-24 17:11:19.043,-0.2181371053059896,
1764,1764,7092,2021-09-24 17:11:19.047,-0.2256075541178385,
1765,1765,7096,2021-09-24 17:11:19.051,-0.207827885945638,
1766,1766,7100,2021-09-24 17:11:19.055,-0.2211252848307291,
1767,1767,7104,2021-09-24 17:11:19.059,-0.2015527089436849,
1768,1768,7108,2021-09-24 17:11:19.063,-0.1954269409179687,
1769,1769,7112,2021-09-24 17:11:19.067,-0.2012538909912109,
1770,1770,7116,2021-09-24 17:11:19.071,-0.1984151204427083,
1771,1771,7120,2021-09-24 17:11:19.075,-0.2347215016682943,
1772,1772,7124,2021-09-24 17:11:19.079,-0.2347215016682943,
1773,1773,7128,2021-09-24 17:11:19.083,-0.2114137013753255,
1774,1774,7132,2021-09-24 17:11:19.087,-0.2157465616861979,
1775,1775,7136,2021-09-24 17:11:19.091,-0.2051385243733724,
1776,1776,7140,2021-09-24 17:11:19.095,-0.2320321400960286,
1777,1777,7144,2021-09-24 17:11:19.099,-0.2338250478108724,
1778,1778,7148,2021-09-24 17:11:19.103,-0.2263545989990234,
1779,1779,7152,2021-09-24 17:11:19.107,-0.2469730377197266,
1780,1780,7156,2021-09-24 17:11:19.111,-0.2232170104980469,
1781,1781,7160,2021-09-24 17:11:19.115,-0.2326297760009766,
1782,1782,7164,2021-09-24 17:11:19.119,-0.2287451426188151,
1783,1783,7168,2021-09-24 17:11:19.123,-0.2196311950683594,
1784,1784,7172,2021-09-24 17:11:19.127,-0.2427895863850911,
1785,1785,7176,2021-09-24 17:11:19.131,-0.2229181925455729,
1786,1786,7180,2021-09-24 17:11:19.135,-0.2126089731852213,
1787,1787,7184,2021-09-24 17:11:19.139,-0.1960245768229166,
1788,1788,7188,2021-09-24 17:11:19.143,-0.1969210306803385,
1789,1789,7192,2021-09-24 17:11:19.147,-0.2262051900227865,
1790,1790,7196,2021-09-24 17:11:19.151,-0.2112642923990885,
1791,1791,7200,2021-09-24 17:11:19.155,-0.2206770579020182,
1792,1792,7204,2021-09-24 17:11:19.159,-0.2142524719238281,
1793,1793,7208,2021-09-24 17:11:19.163,-0.2000586191813151,
1794,1794,7212,2021-09-24 17:11:19.167,-0.2084255218505859,
1795,1795,7216,2021-09-24 17:11:19.171,-0.1895999908447266,
1796,1796,7220,2021-09-24 17:11:19.175,-0.2133560180664062,
1797,1797,7224,2021-09-24 17:11:19.179,-0.2181371053059896,
1798,1798,7228,2021-09-24 17:11:19.183,-0.2121607462565104,
1799,1799,7232,2021-09-24 17:11:19.187,-0.2348709106445312,
1800,1800,7236,2021-09-24 17:11:19.191,-0.2227687835693359,
1801,1801,7240,2021-09-24 17:11:19.195,-0.2589257558186849,
1802,1802,7244,2021-09-24 17:11:19.199,-0.2699820200602214,
1803,1803,7248,2021-09-24 17:11:19.203,-0.2693843841552735,
1804,1804,7252,2021-09-24 17:11:19.207,-0.2768548329671224,
1805,1805,7256,2021-09-24 17:11:19.211,-0.2329285939534505,
1806,1806,7260,2021-09-24 17:11:19.215,-0.2233664194742838,
1807,1807,7264,2021-09-24 17:11:19.219,-0.200656255086263,
1808,1808,7268,2021-09-24 17:11:19.223,-0.1785437266031901,
1809,1809,7272,2021-09-24 17:11:19.227,-0.1946798960367838,
1810,1810,7276,2021-09-24 17:11:19.231,-0.1824283599853516,
1811,1811,7280,2021-09-24 17:11:19.235,-0.2064832051595052,
1812,1812,7284,2021-09-24 17:11:19.239,-0.2169418334960937,
1813,1813,7288,2021-09-24 17:11:19.243,-0.2209758758544922,
1814,1814,7292,2021-09-24 17:11:19.247,-0.2447319030761719,
1815,1815,7296,2021-09-24 17:11:19.251,-0.2260557810465495,
1816,1816,7300,2021-09-24 17:11:19.255,-0.2383073170979818,
1817,1817,7304,2021-09-24 17:11:19.259,-0.2399508158365885,
1818,1818,7308,2021-09-24 17:11:19.263,-0.2344226837158203,
1819,1819,7312,2021-09-24 17:11:19.267,-0.258477528889974,
1820,1820,7316,2021-09-24 17:11:19.271,-0.2288945515950521,
1821,1821,7320,2021-09-24 17:11:19.275,-0.1761531829833984,
1822,1822,7324,2021-09-24 17:11:19.279,-0.0513966878255208,
1823,1823,7328,2021-09-24 17:11:19.283,0.1166884104410807,
1824,1824,7332,2021-09-24 17:11:19.287,0.2451801300048828,
1825,1825,7336,2021-09-24 17:11:19.291,0.3234704335530599,
1826,1826,7340,2021-09-24 17:11:19.295,0.2087243398030599,
1827,1827,7344,2021-09-24 17:11:19.299,-0.0155385335286458,
1828,1828,7348,2021-09-24 17:11:19.303,-0.3754647572835287,
1829,1829,7352,2021-09-24 17:11:19.307,-0.8701578776041667,
1830,1830,7356,2021-09-24 17:11:19.311,-1.2533919016520183,
1831,1831,7360,2021-09-24 17:11:19.315,-1.4117654164632163,
1832,1832,7364,2021-09-24 17:11:19.319,-1.184663772583008,
1833,1833,7368,2021-09-24 17:11:19.323,-0.7086467742919923,
1834,1834,7372,2021-09-24 17:11:19.327,-0.2268028259277344,
1835,1835,7376,2021-09-24 17:11:19.331,0.1344680786132812,
1836,1836,7380,2021-09-24 17:11:19.335,0.2734184265136719,
1837,1837,7384,2021-09-24 17:11:19.339,0.2773030598958333,
1838,1838,7388,2021-09-24 17:11:19.343,0.2163441975911458,
1839,1839,7392,2021-09-24 17:11:19.347,0.1059309641520182,
1840,1840,7396,2021-09-24 17:11:19.351,0.0262959798177083,
1841,1841,7400,2021-09-24 17:11:19.355,-0.0612576802571614,
1842,1842,7404,2021-09-24 17:11:19.359,-0.1084709167480468,
1843,1843,7408,2021-09-24 17:11:19.363,-0.136260986328125,
1844,1844,7412,2021-09-24 17:11:19.367,-0.1692803700764974,
1845,1845,7416,2021-09-24 17:11:19.371,-0.1588217417399088,
1846,1846,7420,2021-09-24 17:11:19.375,-0.1964728037516276,
1847,1847,7424,2021-09-24 17:11:19.379,-0.229791005452474,
1848,1848,7428,2021-09-24 17:11:19.383,-0.2450307210286458,
1849,1849,7432,2021-09-24 17:11:19.387,-0.2720737457275391,
1850,1850,7436,2021-09-24 17:11:19.391,-0.2427895863850911,
1851,1851,7440,2021-09-24 17:11:19.395,-0.2483177185058594,
1852,1852,7444,2021-09-24 17:11:19.399,-0.250857671101888,
1853,1853,7448,2021-09-24 17:11:19.403,-0.2495129903157552,
1854,1854,7452,2021-09-24 17:11:19.407,-0.2731196085611979,
1855,1855,7456,2021-09-24 17:11:19.411,-0.2625115712483724,
1856,1856,7460,2021-09-24 17:11:19.415,-0.2660973866780599,
1857,1857,7464,2021-09-24 17:11:19.419,-0.2345720926920573,
1858,1858,7468,2021-09-24 17:11:19.423,-0.2142524719238281,
1859,1859,7472,2021-09-24 17:11:19.427,-0.2238146464029948,
1860,1860,7476,2021-09-24 17:11:19.431,-0.2057361602783203,
1861,1861,7480,2021-09-24 17:11:19.435,-0.222619374593099,
1862,1862,7484,2021-09-24 17:11:19.439,-0.2157465616861979,
1863,1863,7488,2021-09-24 17:11:19.443,-0.1982657114664713,
1864,1864,7492,2021-09-24 17:11:19.447,-0.2136548360188802,
1865,1865,7496,2021-09-24 17:11:19.451,-0.2069314320882161,
1866,1866,7500,2021-09-24 17:11:19.455,-0.2402496337890625,
1867,1867,7504,2021-09-24 17:11:19.459,-0.2399508158365885,
1868,1868,7508,2021-09-24 17:11:19.463,-0.2203782399495443,
1869,1869,7512,2021-09-24 17:11:19.467,-0.2285957336425781,
1870,1870,7516,2021-09-24 17:11:19.471,-0.2096207936604818,
1871,1871,7520,2021-09-24 17:11:19.475,-0.2377096811930338,
1872,1872,7524,2021-09-24 17:11:19.479,-0.2421919504801432,
1873,1873,7528,2021-09-24 17:11:19.483,-0.2251593271891276,
1874,1874,7532,2021-09-24 17:11:19.487,-0.2190335591634115,
1875,1875,7536,2021-09-24 17:11:19.491,-0.1733144124348958,
1876,1876,7540,2021-09-24 17:11:19.495,-0.1954269409179687,
1877,1877,7544,2021-09-24 17:11:19.499,-0.222469965616862,
1878,1878,7548,2021-09-24 17:11:19.503,-0.2384567260742187,
1879,1879,7552,2021-09-24 17:11:19.507,-0.2669938405354818,
1880,1880,7556,2021-09-24 17:11:19.511,-0.2420425415039062,
1881,1881,7560,2021-09-24 17:11:19.515,-0.2396519978841146,
1882,1882,7564,2021-09-24 17:11:19.519,-0.222021738688151,
1883,1883,7568,2021-09-24 17:11:19.523,-0.2132066090901693,
1884,1884,7572,2021-09-24 17:11:19.527,-0.2383073170979818,
1885,1885,7576,2021-09-24 17:11:19.531,-0.2260557810465495,
1886,1886,7580,2021-09-24 17:11:19.535,-0.251305898030599,
1887,1887,7584,2021-09-24 17:11:19.539,-0.250857671101888,
1888,1888,7588,2021-09-24 17:11:19.543,-0.2423413594563802,
1889,1889,7592,2021-09-24 17:11:19.547,-0.2516047159830729,
1890,1890,7596,2021-09-24 17:11:19.551,-0.222619374593099,
1891,1891,7600,2021-09-24 17:11:19.555,-0.2347215016682943,
1892,1892,7604,2021-09-24 17:11:19.559,-0.2372614542643229,
1893,1893,7608,2021-09-24 17:11:19.563,-0.2384567260742187,
1894,1894,7612,2021-09-24 17:11:19.567,-0.2544434865315755,
1895,1895,7616,2021-09-24 17:11:19.571,-0.2178382873535156,
1896,1896,7620,2021-09-24 17:11:19.575,-0.2263545989990234,
1897,1897,7624,2021-09-24 17:11:19.579,-0.2306874593098958,
1898,1898,7628,2021-09-24 17:11:19.583,-0.2196311950683594,
1899,1899,7632,2021-09-24 17:11:19.587,-0.2287451426188151,
1900,1900,7636,2021-09-24 17:11:19.591,-0.2003574371337891,
1901,1901,7640,2021-09-24 17:11:19.595,-0.2022997538248698,
1902,1902,7644,2021-09-24 17:11:19.599,-0.1907952626546224,
1903,1903,7648,2021-09-24 17:11:19.603,-0.1746590932210286,
1904,1904,7652,2021-09-24 17:11:19.607,-0.1891517639160156,
1905,1905,7656,2021-09-24 17:11:19.611,-0.1766014099121094,
1906,1906,7660,2021-09-24 17:11:19.615,-0.2108160654703776,
1907,1907,7664,2021-09-24 17:11:19.619,-0.2265040079752604,
1908,1908,7668,2021-09-24 17:11:19.623,-0.2114137013753255,
1909,1909,7672,2021-09-24 17:11:19.627,-0.2100690205891927,
1910,1910,7676,2021-09-24 17:11:19.631,-0.1780954996744791,
1911,1911,7680,2021-09-24 17:11:19.635,-0.1949787139892578,
1912,1912,7684,2021-09-24 17:11:19.639,-0.2057361602783203,
1913,1913,7688,2021-09-24 17:11:19.643,-0.2066326141357422,
1914,1914,7692,2021-09-24 17:11:19.647,-0.2392037709554036,
1915,1915,7696,2021-09-24 17:11:19.651,-0.2253087361653646,
1916,1916,7700,2021-09-24 17:11:19.655,-0.2335262298583984,
1917,1917,7704,2021-09-24 17:11:19.659,-0.2202288309733073,
1918,1918,7708,2021-09-24 17:11:19.663,-0.201104482014974,
1919,1919,7712,2021-09-24 17:11:19.667,-0.2184359232584635,
1920,1920,7716,2021-09-24 17:11:19.671,-0.2118619283040365,
1921,1921,7720,2021-09-24 17:11:19.675,-0.2348709106445312,
1922,1922,7724,2021-09-24 17:11:19.679,-0.244134267171224,
1923,1923,7728,2021-09-24 17:11:19.683,-0.2311356862386068,
1924,1924,7732,2021-09-24 17:11:19.687,-0.2398014068603516,
1925,1925,7736,2021-09-24 17:11:19.691,-0.2103678385416666,
1926,1926,7740,2021-09-24 17:11:19.695,-0.2206770579020182,
1927,1927,7744,2021-09-24 17:11:19.699,-0.2236652374267578,
1928,1928,7748,2021-09-24 17:11:19.703,-0.2236652374267578,
1929,1929,7752,2021-09-24 17:11:19.707,-0.2480189005533854,
1930,1930,7756,2021-09-24 17:11:19.711,-0.2285957336425781,
1931,1931,7760,2021-09-24 17:11:19.715,-0.2390543619791666,
1932,1932,7764,2021-09-24 17:11:19.719,-0.2120113372802734,
1933,1933,7768,2021-09-24 17:11:19.723,-0.1890023549397786,
1934,1934,7772,2021-09-24 17:11:19.727,-0.2214241027832031,
1935,1935,7776,2021-09-24 17:11:19.731,-0.2197806040445963,
1936,1936,7780,2021-09-24 17:11:19.735,-0.2351697285970052,
1937,1937,7784,2021-09-24 17:11:19.739,-0.2279980977376302,
1938,1938,7788,2021-09-24 17:11:19.743,-0.2260557810465495,
1939,1939,7792,2021-09-24 17:11:19.747,-0.2520529429117839,
1940,1940,7796,2021-09-24 17:11:19.751,-0.2169418334960937,
1941,1941,7800,2021-09-24 17:11:19.755,-0.2109654744466146,
1942,1942,7804,2021-09-24 17:11:19.759,-0.1891517639160156,
1943,1943,7808,2021-09-24 17:11:19.763,-0.1785437266031901,
1944,1944,7812,2021-09-24 17:11:19.767,-0.2135054270426432,
1945,1945,7816,2021-09-24 17:11:19.771,-0.2215735117594401,
1946,1946,7820,2021-09-24 17:11:19.775,-0.250708262125651,
1947,1947,7824,2021-09-24 17:11:19.779,-0.2342732747395833,
1948,1948,7828,2021-09-24 17:11:19.783,-0.2158959706624349,
1949,1949,7832,2021-09-24 17:11:19.787,-0.2300898234049479,
1950,1950,7836,2021-09-24 17:11:19.791,-0.2118619283040365,
1951,1951,7840,2021-09-24 17:11:19.795,-0.2208264668782552,
1952,1952,7844,2021-09-24 17:11:19.799,-0.2114137013753255,
1953,1953,7848,2021-09-24 17:11:19.803,-0.1970704396565755,
1954,1954,7852,2021-09-24 17:11:19.807,-0.2166430155436198,
1955,1955,7856,2021-09-24 17:11:19.811,-0.2097702026367187,
1956,1956,7860,2021-09-24 17:11:19.815,-0.2354685465494791,
1957,1957,7864,2021-09-24 17:11:19.819,-0.2344226837158203,
1958,1958,7868,2021-09-24 17:11:19.823,-0.2212746938069661,
1959,1959,7872,2021-09-24 17:11:19.827,-0.2390543619791666,
1960,1960,7876,2021-09-24 17:11:19.831,-0.2214241027832031,
1961,1961,7880,2021-09-24 17:11:19.835,-0.2342732747395833,
1962,1962,7884,2021-09-24 17:11:19.839,-0.2276992797851562,
1963,1963,7888,2021-09-24 17:11:19.843,-0.2124595642089844,
1964,1964,7892,2021-09-24 17:11:19.847,-0.236514409383138,
1965,1965,7896,2021-09-24 17:11:19.851,-0.2199300130208333,
1966,1966,7900,2021-09-24 17:11:19.855,-0.2274004618326823,
1967,1967,7904,2021-09-24 17:11:19.859,-0.2109654744466146,
1968,1968,7908,2021-09-24 17:11:19.863,-0.1916917165120443,
1969,1969,7912,2021-09-24 17:11:19.867,-0.2197806040445963,
1970,1970,7916,2021-09-24 17:11:19.871,-0.2037938435872396,
1971,1971,7920,2021-09-24 17:11:19.875,-0.21514892578125,
1972,1972,7924,2021-09-24 17:11:19.879,-0.200955073038737,
1973,1973,7928,2021-09-24 17:11:19.883,-0.1849683125813802,
1974,1974,7932,2021-09-24 17:11:19.887,-0.2020009358723958,
1975,1975,7936,2021-09-24 17:11:19.891,-0.1879564921061198,
1976,1976,7940,2021-09-24 17:11:19.895,-0.2176888783772786,
1977,1977,7944,2021-09-24 17:11:19.899,-0.2421919504801432,
1978,1978,7948,2021-09-24 17:11:19.903,-0.2575810750325521,
1979,1979,7952,2021-09-24 17:11:19.907,-0.2819347381591797,
1980,1980,7956,2021-09-24 17:11:19.911,-0.2660973866780599,
1981,1981,7960,2021-09-24 17:11:19.915,-0.2689361572265625,
1982,1982,7964,2021-09-24 17:11:19.919,-0.2395025889078776,
1983,1983,7968,2021-09-24 17:11:19.923,-0.2024491628011068,
1984,1984,7972,2021-09-24 17:11:19.927,-0.2069314320882161,
1985,1985,7976,2021-09-24 17:11:19.931,-0.18646240234375,
1986,1986,7980,2021-09-24 17:11:19.935,-0.2173900604248047,
1987,1987,7984,2021-09-24 17:11:19.939,-0.2239640553792318,
1988,1988,7988,2021-09-24 17:11:19.943,-0.2169418334960937,
1989,1989,7992,2021-09-24 17:11:19.947,-0.2317333221435547,
1990,1990,7996,2021-09-24 17:11:19.951,-0.2097702026367187,
1991,1991,8000,2021-09-24 17:11:19.955,-0.2242628733317057,
1992,1992,8004,2021-09-24 17:11:19.959,-0.2176888783772786,
1993,1993,8008,2021-09-24 17:11:19.963,-0.1982657114664713,
1994,1994,8012,2021-09-24 17:11:19.967,-0.222021738688151,
1995,1995,8016,2021-09-24 17:11:19.971,-0.2167924245198568,
1996,1996,8020,2021-09-24 17:11:19.975,-0.2581787109375,
1997,1997,8024,2021-09-24 17:11:19.979,-0.2662467956542969,
1998,1998,8028,2021-09-24 17:11:19.983,-0.2253087361653646,
1999,1999,8032,2021-09-24 17:11:19.987,-0.1429843902587891,
2000,2000,8036,2021-09-24 17:11:19.991,0.0267442067464192,
2001,2001,8040,2021-09-24 17:11:19.995,0.1713720957438151,
2002,2002,8044,2021-09-24 17:11:19.999,0.3043460845947266,
2003,2003,8048,2021-09-24 17:11:20.003,0.3128623962402344,
2004,2004,8052,2021-09-24 17:11:20.007,0.1335716247558594,
2005,2005,8056,2021-09-24 17:11:20.011,-0.1329739888509114,
2006,2006,8060,2021-09-24 17:11:20.015,-0.5986817677815756,
2007,2007,8064,2021-09-24 17:11:20.019,-1.0655848185221355,
2008,2008,8068,2021-09-24 17:11:20.023,-1.3769531250000002,
2009,2009,8072,2021-09-24 17:11:20.027,-1.384274164835612,
2010,2010,8076,2021-09-24 17:11:20.031,-1.01194699605306,
2011,2011,8080,2021-09-24 17:11:20.035,-0.5132198333740235,
2012,2012,8084,2021-09-24 17:11:20.039,-0.0478108723958333,
2013,2013,8088,2021-09-24 17:11:20.043,0.236514409383138,
2014,2014,8092,2021-09-24 17:11:20.047,0.3070354461669922,
2015,2015,8096,2021-09-24 17:11:20.051,0.2968756357828776,
2016,2016,8100,2021-09-24 17:11:20.055,0.1975186665852865,
2017,2017,8104,2021-09-24 17:11:20.059,0.0905418395996093,
2018,2018,8108,2021-09-24 17:11:20.063,-0.007022221883138,
2019,2019,8112,2021-09-24 17:11:20.067,-0.1129531860351562,
2020,2020,8116,2021-09-24 17:11:20.071,-0.1471678415934245,
2021,2021,8120,2021-09-24 17:11:20.075,-0.1809342702229817,
2022,2022,8124,2021-09-24 17:11:20.079,-0.1964728037516276,
2023,2023,8128,2021-09-24 17:11:20.083,-0.1755555470784505,
2024,2024,8132,2021-09-24 17:11:20.087,-0.2060349782307943,
2025,2025,8136,2021-09-24 17:11:20.091,-0.2091725667317708,
2026,2026,8140,2021-09-24 17:11:20.095,-0.2285957336425781,
2027,2027,8144,2021-09-24 17:11:20.099,-0.2529493967692057,
2028,2028,8148,2021-09-24 17:11:20.103,-0.2550411224365235,
2029,2029,8152,2021-09-24 17:11:20.107,-0.2828311920166016,
2030,2030,8156,2021-09-24 17:11:20.111,-0.2631092071533203,
2031,2031,8160,2021-09-24 17:11:20.115,-0.2505588531494141,
2032,2032,8164,2021-09-24 17:11:20.119,-0.2502600351969401,
2033,2033,8168,2021-09-24 17:11:20.123,-0.2314345041910807,
2034,2034,8172,2021-09-24 17:11:20.127,-0.2571328481038412,
2035,2035,8176,2021-09-24 17:11:20.131,-0.2481683095296224,
2036,2036,8180,2021-09-24 17:11:20.135,-0.2427895863850911,
2037,2037,8184,2021-09-24 17:11:20.139,-0.2362155914306641,
2038,2038,8188,2021-09-24 17:11:20.143,-0.2075290679931641,
2039,2039,8192,2021-09-24 17:11:20.147,-0.2266534169514974,
2040,2040,8196,2021-09-24 17:11:20.151,-0.2144018809000651,
2041,2041,8200,2021-09-24 17:11:20.155,-0.2130572001139323,
2042,2042,8204,2021-09-24 17:11:20.159,-0.2118619283040365,
2043,2043,8208,2021-09-24 17:11:20.163,-0.1860141754150391,
2044,2044,8212,2021-09-24 17:11:20.167,-0.2124595642089844,
2045,2045,8216,2021-09-24 17:11:20.171,-0.2112642923990885,
2046,2046,8220,2021-09-24 17:11:20.175,-0.2305380503336588,
