,Unnamed: 0,Tick Time,RTC Time,ECG,marker
0,0,81,2021-09-24 15:18:21.642,-0.1642004648844401,
1,1,85,2021-09-24 15:18:21.646,-0.3275044759114583,
2,2,89,2021-09-24 15:18:21.650,-0.0234572092692057,
3,3,93,2021-09-24 15:18:21.654,-0.3170458475748698,
4,4,97,2021-09-24 15:18:21.658,-0.0938288370768229,
5,5,101,2021-09-24 15:18:21.662,-0.1634534200032552,
6,6,105,2021-09-24 15:18:21.666,-0.3488699595133464,
7,7,109,2021-09-24 15:18:21.670,-0.0629011789957682,
8,8,113,2021-09-24 15:18:21.674,-0.3627649943033854,
9,9,117,2021-09-24 15:18:21.678,-0.1240094502766927,
10,10,121,2021-09-24 15:18:21.682,-0.1724179585774739,
11,11,125,2021-09-24 15:18:21.686,-0.3539498647054037,
12,12,129,2021-09-24 15:18:21.690,-0.0667858123779297,
13,13,133,2021-09-24 15:18:21.694,-0.365603764851888,
14,14,137,2021-09-24 15:18:21.698,-0.1313304901123047,
15,15,141,2021-09-24 15:18:21.702,-0.1715215047200521,
16,16,145,2021-09-24 15:18:21.706,-0.3337796529134115,
17,17,149,2021-09-24 15:18:21.710,-0.0482590993245442,
18,18,153,2021-09-24 15:18:21.714,-0.3648567199707032,
19,19,157,2021-09-24 15:18:21.718,-0.1411914825439453,
20,20,161,2021-09-24 15:18:21.722,-0.1961739857991536,
21,21,165,2021-09-24 15:18:21.726,-0.3670978546142578,
22,22,169,2021-09-24 15:18:21.730,-0.0772444407145182,
23,23,173,2021-09-24 15:18:21.734,-0.387417475382487,
24,24,177,2021-09-24 15:18:21.738,-0.1495583852132161,
25,25,181,2021-09-24 15:18:21.742,-0.1981163024902344,
26,26,185,2021-09-24 15:18:21.746,-0.3630638122558594,
27,27,189,2021-09-24 15:18:21.750,-0.0575224558512369,
28,28,193,2021-09-24 15:18:21.754,-0.3479735056559245,
29,29,197,2021-09-24 15:18:21.758,-0.107275644938151,
30,30,201,2021-09-24 15:18:21.762,-0.1664415995279948,
31,31,205,2021-09-24 15:18:21.766,-0.3502146402994792,
32,32,209,2021-09-24 15:18:21.770,-0.0633494059244791,
33,33,213,2021-09-24 15:18:21.774,-0.3796482086181641,
34,34,217,2021-09-24 15:18:21.778,-0.1485125223795573,
35,35,221,2021-09-24 15:18:21.782,-0.2036444346110026,
36,36,225,2021-09-24 15:18:21.786,-0.3823375701904297,
37,37,229,2021-09-24 15:18:21.790,-0.0878524780273437,
38,38,233,2021-09-24 15:18:21.794,-0.3809928894042969,
39,39,237,2021-09-24 15:18:21.798,-0.1308822631835937,
40,40,241,2021-09-24 15:18:21.802,-0.1658439636230469,
41,41,245,2021-09-24 15:18:21.806,-0.3328831990559896,
42,42,249,2021-09-24 15:18:21.810,-0.0445238749186197,
43,43,253,2021-09-24 15:18:21.814,-0.3551451365152995,
44,44,257,2021-09-24 15:18:21.818,-0.1193777720133463,
45,45,261,2021-09-24 15:18:21.822,-0.1615111033121745,
46,46,265,2021-09-24 15:18:21.826,-0.3331820170084635,
47,47,269,2021-09-24 15:18:21.830,-0.0412368774414062,
48,48,273,2021-09-24 15:18:21.834,-0.3379631042480469,
49,49,277,2021-09-24 15:18:21.838,-0.2492141723632812,
50,50,281,2021-09-24 15:18:21.842,-0.0518449147542317,
51,51,285,2021-09-24 15:18:21.846,-0.358432133992513,
52,52,289,2021-09-24 15:18:21.850,-0.0620047251383463,
53,53,293,2021-09-24 15:18:21.854,-0.3022543589274089,
54,54,297,2021-09-24 15:18:21.858,-0.2740160624186198,
55,55,301,2021-09-24 15:18:21.862,-0.1258023579915364,
56,56,305,2021-09-24 15:18:21.866,-0.4184945424397787,
57,57,309,2021-09-24 15:18:21.870,-0.0805314381917317,
58,58,313,2021-09-24 15:18:21.874,-0.2952321370442708,
59,59,317,2021-09-24 15:18:21.878,-0.2831300099690755,
60,60,321,2021-09-24 15:18:21.882,-0.1546382904052734,
61,61,325,2021-09-24 15:18:21.886,-0.4419517517089844,
62,62,329,2021-09-24 15:18:21.890,-0.0775432586669922,
63,63,333,2021-09-24 15:18:21.894,-0.2608680725097657,
64,64,337,2021-09-24 15:18:21.898,-0.2190335591634115,
65,65,341,2021-09-24 15:18:21.902,-0.078738530476888,
66,66,345,2021-09-24 15:18:21.906,-0.3904056549072266,
67,67,349,2021-09-24 15:18:21.910,-0.0587177276611328,
68,68,353,2021-09-24 15:18:21.914,-0.265200932820638,
69,69,357,2021-09-24 15:18:21.918,-0.2284463246663411,
70,70,361,2021-09-24 15:18:21.922,-0.0950241088867187,
71,71,365,2021-09-24 15:18:21.926,-0.4107252756754558,
72,72,369,2021-09-24 15:18:21.930,-0.0764973958333333,
73,73,373,2021-09-24 15:18:21.934,-0.2808888753255208,
74,74,377,2021-09-24 15:18:21.938,-0.258328119913737,
75,75,381,2021-09-24 15:18:21.942,-0.1277446746826172,
76,76,385,2021-09-24 15:18:21.946,-0.4285049438476563,
77,77,389,2021-09-24 15:18:21.950,-0.0880018870035807,
78,78,393,2021-09-24 15:18:21.954,-0.287014643351237,
79,79,397,2021-09-24 15:18:21.958,-0.2547423044840495,
80,80,401,2021-09-24 15:18:21.962,-0.0893465677897135,
81,81,405,2021-09-24 15:18:21.966,-0.3125635782877604,
82,82,409,2021-09-24 15:18:21.970,0.1532936096191406,
83,83,413,2021-09-24 15:18:21.974,0.1255035400390625,
84,84,417,2021-09-24 15:18:21.978,0.2983697255452474,
85,85,421,2021-09-24 15:18:21.982,0.5112775166829427,
86,86,425,2021-09-24 15:18:21.986,0.2178382873535156,
87,87,429,2021-09-24 15:18:21.990,0.4084841410319011,
88,88,433,2021-09-24 15:18:21.994,-0.0636482238769531,
89,89,437,2021-09-24 15:18:21.998,-0.4905096689860027,
90,90,441,2021-09-24 15:18:22.002,-0.8269786834716798,
91,91,445,2021-09-24 15:18:22.006,-1.5085824330647788,
92,92,449,2021-09-24 15:18:22.010,-1.427303949991862,
93,93,453,2021-09-24 15:18:22.014,-1.558186213175456,
94,94,457,2021-09-24 15:18:22.018,-1.2584718068440757,
95,95,461,2021-09-24 15:18:22.022,-0.7183583577473959,
96,96,465,2021-09-24 15:18:22.026,-0.5689493815104167,
97,97,469,2021-09-24 15:18:22.030,0.1328245798746745,
98,98,473,2021-09-24 15:18:22.034,0.1812330881754557,
99,99,477,2021-09-24 15:18:22.038,0.2864170074462891,
100,100,481,2021-09-24 15:18:22.042,0.4291025797526042,
101,101,485,2021-09-24 15:18:22.046,0.0757503509521484,
102,102,489,2021-09-24 15:18:22.050,0.3276538848876953,
103,103,493,2021-09-24 15:18:22.054,0.0558789571126302,
104,104,497,2021-09-24 15:18:22.058,0.0092633565266927,
105,105,501,2021-09-24 15:18:22.062,0.093231201171875,
106,106,505,2021-09-24 15:18:22.066,-0.2566846211751302,
107,107,509,2021-09-24 15:18:22.070,0.0322723388671875,
108,108,513,2021-09-24 15:18:22.074,-0.2132066090901693,
109,109,517,2021-09-24 15:18:22.078,-0.2161947886149088,
110,110,521,2021-09-24 15:18:22.082,-0.0935300191243489,
111,111,525,2021-09-24 15:18:22.086,-0.3842798868815105,
112,112,529,2021-09-24 15:18:22.090,-0.0321229298909505,
113,113,533,2021-09-24 15:18:22.094,-0.2341238657633463,
114,114,537,2021-09-24 15:18:22.098,-0.2236652374267578,
115,115,541,2021-09-24 15:18:22.102,-0.1137002309163411,
116,116,545,2021-09-24 15:18:22.106,-0.4431470235188802,
117,117,549,2021-09-24 15:18:22.110,-0.1113096872965495,
118,118,553,2021-09-24 15:18:22.114,-0.3046449025472005,
119,119,557,2021-09-24 15:18:22.118,-0.2617645263671875,
120,120,561,2021-09-24 15:18:22.122,-0.1222165425618489,
121,121,565,2021-09-24 15:18:22.126,-0.4322401682535808,
122,122,569,2021-09-24 15:18:22.130,-0.0977134704589843,
123,123,573,2021-09-24 15:18:22.134,-0.3140576680501302,
124,124,577,2021-09-24 15:18:22.138,-0.294335683186849,
125,125,581,2021-09-24 15:18:22.142,-0.1556841532389323,
126,126,585,2021-09-24 15:18:22.146,-0.451812744140625,
127,127,589,2021-09-24 15:18:22.150,-0.0987593332926432,
128,128,593,2021-09-24 15:18:22.154,-0.2789465586344401,
129,129,597,2021-09-24 15:18:22.158,-0.2395025889078776,
130,130,601,2021-09-24 15:18:22.162,-0.1023451487223307,
131,131,605,2021-09-24 15:18:22.166,-0.4074382781982422,
132,132,609,2021-09-24 15:18:22.170,-0.0706704457600911,
133,133,613,2021-09-24 15:18:22.174,-0.279544194539388,
134,134,617,2021-09-24 15:18:22.178,-0.2608680725097657,
135,135,621,2021-09-24 15:18:22.182,-0.1444784800211588,
136,136,625,2021-09-24 15:18:22.186,-0.4486751556396485,
137,137,629,2021-09-24 15:18:22.190,-0.0990581512451172,
138,138,633,2021-09-24 15:18:22.194,-0.2819347381591797,
139,139,637,2021-09-24 15:18:22.198,-0.2647527058919271,
140,140,641,2021-09-24 15:18:22.202,-0.1104132334391276,
141,141,645,2021-09-24 15:18:22.206,-0.3972784678141277,
142,142,649,2021-09-24 15:18:22.210,-0.0528907775878906,
143,143,653,2021-09-24 15:18:22.214,-0.2487659454345703,
144,144,657,2021-09-24 15:18:22.218,-0.2305380503336588,
145,145,661,2021-09-24 15:18:22.222,-0.078738530476888,
146,146,665,2021-09-24 15:18:22.226,-0.372775395711263,
147,147,669,2021-09-24 15:18:22.230,-0.0403404235839843,
148,148,673,2021-09-24 15:18:22.234,-0.2395025889078776,
149,149,677,2021-09-24 15:18:22.238,-0.2054373423258463,
150,150,681,2021-09-24 15:18:22.242,-0.0646940867106119,
151,151,685,2021-09-24 15:18:22.246,-0.3706836700439453,
152,152,689,2021-09-24 15:18:22.250,-0.0406392415364583,
153,153,693,2021-09-24 15:18:22.254,-0.2610174814860026,
154,154,697,2021-09-24 15:18:22.258,-0.2631092071533203,
155,155,701,2021-09-24 15:18:22.262,-0.1396973927815755,
156,156,705,2021-09-24 15:18:22.266,-0.4607772827148438,
157,157,709,2021-09-24 15:18:22.270,-0.1334222157796224,
158,158,713,2021-09-24 15:18:22.274,-0.3403536478678385,
159,159,717,2021-09-24 15:18:22.278,-0.3122647603352865,
160,160,721,2021-09-24 15:18:22.282,-0.1773484547932942,
161,161,725,2021-09-24 15:18:22.286,-0.4796028137207032,
162,162,729,2021-09-24 15:18:22.290,-0.1184813181559245,
163,163,733,2021-09-24 15:18:22.294,-0.2977720896402995,
164,164,737,2021-09-24 15:18:22.298,-0.2424907684326172,
165,165,741,2021-09-24 15:18:22.302,-0.0975640614827474,
166,166,745,2021-09-24 15:18:22.306,-0.3989219665527344,
167,167,749,2021-09-24 15:18:22.310,-0.0597635904947916,
168,168,753,2021-09-24 15:18:22.314,-0.2539952596028646,
169,169,757,2021-09-24 15:18:22.318,-0.2172406514485677,
170,170,761,2021-09-24 15:18:22.322,-0.0708198547363281,
171,171,765,2021-09-24 15:18:22.326,-0.3754647572835287,
172,172,769,2021-09-24 15:18:22.330,-0.0416851043701171,
173,173,773,2021-09-24 15:18:22.334,-0.2502600351969401,
174,174,777,2021-09-24 15:18:22.338,-0.2320321400960286,
175,175,781,2021-09-24 15:18:22.342,-0.1059309641520182,
176,176,785,2021-09-24 15:18:22.346,-0.4063924153645833,
177,177,789,2021-09-24 15:18:22.350,-0.0521437327067057,
178,178,793,2021-09-24 15:18:22.354,-0.2456283569335937,
179,179,797,2021-09-24 15:18:22.358,-0.2057361602783203,
180,180,801,2021-09-24 15:18:22.362,-0.0781408945719401,
181,181,805,2021-09-24 15:18:22.366,-0.3998184204101563,
182,182,809,2021-09-24 15:18:22.370,-0.0839678446451823,
183,183,813,2021-09-24 15:18:22.374,-0.3055413564046224,
184,184,817,2021-09-24 15:18:22.378,-0.2640056610107422,
185,185,821,2021-09-24 15:18:22.382,-0.100552241007487,
186,186,825,2021-09-24 15:18:22.386,-0.3935432434082032,
187,187,829,2021-09-24 15:18:22.390,-0.0503508249918619,
188,188,833,2021-09-24 15:18:22.394,-0.2623621622721354,
189,189,837,2021-09-24 15:18:22.398,-0.2442836761474609,
190,190,841,2021-09-24 15:18:22.402,-0.1175848642985026,
191,191,845,2021-09-24 15:18:22.406,-0.4331366221110027,
192,192,849,2021-09-24 15:18:22.410,-0.0984605153401692,
193,193,853,2021-09-24 15:18:22.414,-0.3033002217610677,
194,194,857,2021-09-24 15:18:22.418,-0.2598222096761068,
195,195,861,2021-09-24 15:18:22.422,-0.1086203257242838,
196,196,865,2021-09-24 15:18:22.426,-0.4043006896972657,
197,197,869,2021-09-24 15:18:22.430,-0.0605106353759765,
198,198,873,2021-09-24 15:18:22.434,-0.2686373392740885,
199,199,877,2021-09-24 15:18:22.438,-0.2409966786702474,
200,200,881,2021-09-24 15:18:22.442,-0.1092179616292317,
201,201,885,2021-09-24 15:18:22.446,-0.415805180867513,
202,202,889,2021-09-24 15:18:22.450,-0.0758997599283854,
203,203,893,2021-09-24 15:18:22.454,-0.2770042419433594,
204,204,897,2021-09-24 15:18:22.458,-0.2480189005533854,
205,205,901,2021-09-24 15:18:22.462,-0.1095167795817057,
206,206,905,2021-09-24 15:18:22.466,-0.4111735026041667,
207,207,909,2021-09-24 15:18:22.470,-0.0634988149007161,
208,208,913,2021-09-24 15:18:22.474,-0.2628103892008464,
209,209,917,2021-09-24 15:18:22.478,-0.2344226837158203,
210,210,921,2021-09-24 15:18:22.482,-0.0978628794352213,
211,211,925,2021-09-24 15:18:22.486,-0.3975772857666016,
212,212,929,2021-09-24 15:18:22.490,-0.0664869944254557,
213,213,933,2021-09-24 15:18:22.494,-0.2738666534423828,
214,214,937,2021-09-24 15:18:22.498,-0.2392037709554036,
215,215,941,2021-09-24 15:18:22.502,-0.0920359293619791,
216,216,945,2021-09-24 15:18:22.506,-0.3772576649983724,
217,217,949,2021-09-24 15:18:22.510,-0.0415356953938802,
218,218,953,2021-09-24 15:18:22.514,-0.251305898030599,
219,219,957,2021-09-24 15:18:22.518,-0.2403990427652995,
220,220,961,2021-09-24 15:18:22.522,-0.121768315633138,
221,221,965,2021-09-24 15:18:22.526,-0.4172992706298828,
222,222,969,2021-09-24 15:18:22.530,-0.0605106353759765,
223,223,973,2021-09-24 15:18:22.534,-0.2602704366048177,
224,224,977,2021-09-24 15:18:22.538,-0.2386061350504557,
225,225,981,2021-09-24 15:18:22.542,-0.1280434926350911,
226,226,985,2021-09-24 15:18:22.546,-0.459582010904948,
227,227,989,2021-09-24 15:18:22.550,-0.1328245798746745,
228,228,993,2021-09-24 15:18:22.554,-0.3164482116699219,
229,229,997,2021-09-24 15:18:22.558,-0.2554893493652344,
230,230,1001,2021-09-24 15:18:22.562,-0.1089191436767578,
231,231,1005,2021-09-24 15:18:22.566,-0.4138628641764323,
232,232,1009,2021-09-24 15:18:22.570,-0.0739574432373047,
233,233,1013,2021-09-24 15:18:22.574,-0.2784983317057292,
234,234,1017,2021-09-24 15:18:22.578,-0.2530988057454427,
235,235,1021,2021-09-24 15:18:22.582,-0.0909900665283203,
236,236,1025,2021-09-24 15:18:22.586,-0.3857739766438802,
237,237,1029,2021-09-24 15:18:22.590,-0.049902598063151,
238,238,1033,2021-09-24 15:18:22.594,-0.258626937866211,
239,239,1037,2021-09-24 15:18:22.598,-0.2381579081217448,
240,240,1041,2021-09-24 15:18:22.602,-0.1150449117024739,
241,241,1045,2021-09-24 15:18:22.606,-0.4243214925130208,
242,242,1049,2021-09-24 15:18:22.610,-0.0709692637125651,
243,243,1053,2021-09-24 15:18:22.614,-0.2529493967692057,
244,244,1057,2021-09-24 15:18:22.618,-0.2130572001139323,
245,245,1061,2021-09-24 15:18:22.622,-0.0800832112630208,
246,246,1065,2021-09-24 15:18:22.626,-0.3966808319091797,
247,247,1069,2021-09-24 15:18:22.630,-0.0669352213541666,
248,248,1073,2021-09-24 15:18:22.634,-0.2841758728027344,
249,249,1077,2021-09-24 15:18:22.638,-0.2637068430582682,
250,250,1081,2021-09-24 15:18:22.642,-0.1423867543538411,
251,251,1085,2021-09-24 15:18:22.646,-0.4416529337565105,
252,252,1089,2021-09-24 15:18:22.650,-0.0602118174235026,
253,253,1093,2021-09-24 15:18:22.654,-0.1562817891438802,
254,254,1097,2021-09-24 15:18:22.658,0.0443744659423828,
255,255,1101,2021-09-24 15:18:22.662,0.365902582804362,
256,256,1105,2021-09-24 15:18:22.666,0.2136548360188802,
257,257,1109,2021-09-24 15:18:22.670,0.5870278676350912,
258,258,1113,2021-09-24 15:18:22.674,0.3270562489827474,
259,259,1117,2021-09-24 15:18:22.678,0.1344680786132812,
260,260,1121,2021-09-24 15:18:22.682,-0.1169872283935547,
261,261,1125,2021-09-24 15:18:22.686,-0.8946609497070314,
262,262,1129,2021-09-24 15:18:22.690,-1.0660330454508464,
263,263,1133,2021-09-24 15:18:22.694,-1.5407053629557297,
264,264,1137,2021-09-24 15:18:22.698,-1.601215998331706,
265,265,1141,2021-09-24 15:18:22.702,-1.2569777170817058,
266,266,1145,2021-09-24 15:18:22.706,-1.1882495880126955,
267,267,1149,2021-09-24 15:18:22.710,-0.4700406392415365,
268,268,1153,2021-09-24 15:18:22.714,-0.2372614542643229,
269,269,1157,2021-09-24 15:18:22.718,0.1036898295084635,
270,270,1161,2021-09-24 15:18:22.722,0.408782958984375,
271,271,1165,2021-09-24 15:18:22.726,0.1459725697835286,
272,272,1169,2021-09-24 15:18:22.730,0.4259649912516277,
273,273,1173,2021-09-24 15:18:22.734,0.15777587890625,
274,274,1177,2021-09-24 15:18:22.738,0.1044368743896484,
275,275,1181,2021-09-24 15:18:22.742,0.157925287882487,
276,276,1185,2021-09-24 15:18:22.746,-0.1990127563476562,
277,277,1189,2021-09-24 15:18:22.750,0.1021957397460937,
278,278,1193,2021-09-24 15:18:22.754,-0.1284917195638021,
279,279,1197,2021-09-24 15:18:22.758,-0.1280434926350911,
280,280,1201,2021-09-24 15:18:22.762,-0.013745625813802,
281,281,1205,2021-09-24 15:18:22.766,-0.3242174784342448,
282,282,1209,2021-09-24 15:18:22.770,-0.0034364064534505,
283,283,1213,2021-09-24 15:18:22.774,-0.2339744567871094,
284,284,1217,2021-09-24 15:18:22.778,-0.2347215016682943,
285,285,1221,2021-09-24 15:18:22.782,-0.1262505849202474,
286,286,1225,2021-09-24 15:18:22.786,-0.4477787017822266,
287,287,1229,2021-09-24 15:18:22.790,-0.1102638244628906,
288,288,1233,2021-09-24 15:18:22.794,-0.2988179524739583,
289,289,1237,2021-09-24 15:18:22.798,-0.2699820200602214,
290,290,1241,2021-09-24 15:18:22.802,-0.1428349812825521,
291,291,1245,2021-09-24 15:18:22.806,-0.4600302378336589,
292,292,1249,2021-09-24 15:18:22.810,-0.1247564951578776,
293,293,1253,2021-09-24 15:18:22.814,-0.3246657053629557,
294,294,1257,2021-09-24 15:18:22.818,-0.2874628702799479,
295,295,1261,2021-09-24 15:18:22.822,-0.150305430094401,
296,296,1265,2021-09-24 15:18:22.826,-0.4510656992594402,
297,297,1269,2021-09-24 15:18:22.830,-0.0921853383382161,
298,298,1273,2021-09-24 15:18:22.834,-0.2719243367513021,
299,299,1277,2021-09-24 15:18:22.838,-0.4111735026041667,
300,300,1281,2021-09-24 15:18:22.842,-0.0519943237304687,
301,301,1285,2021-09-24 15:18:22.846,-0.337216059366862,
302,302,1289,2021-09-24 15:18:22.850,-0.121768315633138,
303,303,1293,2021-09-24 15:18:22.854,-0.1943810780843099,
304,304,1297,2021-09-24 15:18:22.858,-0.3720283508300782,
305,305,1301,2021-09-24 15:18:22.862,-0.0726127624511718,
306,306,1305,2021-09-24 15:18:22.866,-0.373223622639974,
307,307,1309,2021-09-24 15:18:22.870,-0.1181825002034505,
308,308,1313,2021-09-24 15:18:22.874,-0.1517995198567708,
309,309,1317,2021-09-24 15:18:22.878,-0.3212292989095052,
310,310,1321,2021-09-24 15:18:22.882,-0.0418345133463541,
311,311,1325,2021-09-24 15:18:22.886,-0.3608226776123047,
312,312,1329,2021-09-24 15:18:22.890,-0.1396973927815755,
313,313,1333,2021-09-24 15:18:22.894,-0.2003574371337891,
314,314,1337,2021-09-24 15:18:22.898,-0.3811422983805339,
315,315,1341,2021-09-24 15:18:22.902,-0.0754515329996744,
316,316,1345,2021-09-24 15:18:22.906,-0.3629144032796224,
317,317,1349,2021-09-24 15:18:22.910,-0.1171366373697916,
318,318,1353,2021-09-24 15:18:22.914,-0.1615111033121745,
319,319,1357,2021-09-24 15:18:22.918,-0.3358713785807292,
320,320,1361,2021-09-24 15:18:22.922,-0.035559336344401,
321,321,1365,2021-09-24 15:18:22.926,-0.3416983286539714,
322,322,1369,2021-09-24 15:18:22.930,-0.1272964477539062,
323,323,1373,2021-09-24 15:18:22.934,-0.1529947916666666,
324,324,1377,2021-09-24 15:18:22.938,-0.3242174784342448,
325,325,1381,2021-09-24 15:18:22.942,-0.0506496429443359,
326,326,1385,2021-09-24 15:18:22.946,-0.3838316599527995,
327,327,1389,2021-09-24 15:18:22.950,-0.186312993367513,
328,328,1393,2021-09-24 15:18:22.954,-0.2614657084147135,
329,329,1397,2021-09-24 15:18:22.958,-0.4370212554931641,
330,330,1401,2021-09-24 15:18:22.962,-0.1396973927815755,
331,331,1405,2021-09-24 15:18:22.966,-0.4322401682535808,
332,332,1409,2021-09-24 15:18:22.970,-0.1955763498942057,
333,333,1413,2021-09-24 15:18:22.974,-0.2094713846842448,
334,334,1417,2021-09-24 15:18:22.978,-0.5039564768473308,
335,335,1421,2021-09-24 15:18:22.982,-0.0817267100016276,
336,336,1425,2021-09-24 15:18:22.986,-0.2157465616861979,
337,337,1429,2021-09-24 15:18:22.990,-0.1621087392171224,
338,338,1433,2021-09-24 15:18:22.994,-0.0419839223225911,
339,339,1437,2021-09-24 15:18:22.998,-0.3678448994954427,
340,340,1441,2021-09-24 15:18:23.002,-0.0525919596354166,
341,341,1445,2021-09-24 15:18:23.006,-0.2613162994384766,
342,342,1449,2021-09-24 15:18:23.010,-0.2447319030761719,
343,343,1453,2021-09-24 15:18:23.014,-0.1186307271321614,
344,344,1457,2021-09-24 15:18:23.018,-0.4187933603922527,
345,345,1461,2021-09-24 15:18:23.022,-0.0524425506591796,
346,346,1465,2021-09-24 15:18:23.026,-0.2133560180664062,
347,347,1469,2021-09-24 15:18:23.030,-0.1625569661458333,
348,348,1473,2021-09-24 15:18:23.034,-0.0383981068929036,
349,349,1477,2021-09-24 15:18:23.038,-0.3715801239013672,
350,350,1481,2021-09-24 15:18:23.042,-0.0817267100016276,
351,351,1485,2021-09-24 15:18:23.046,-0.3125635782877604,
352,352,1489,2021-09-24 15:18:23.050,-0.2771536509195964,
353,353,1493,2021-09-24 15:18:23.054,-0.1122061411539713,
354,354,1497,2021-09-24 15:18:23.058,-0.402059555053711,
355,355,1501,2021-09-24 15:18:23.062,-0.0509484608968099,
356,356,1505,2021-09-24 15:18:23.066,-0.265798568725586,
357,357,1509,2021-09-24 15:18:23.070,-0.250708262125651,
358,358,1513,2021-09-24 15:18:23.074,-0.1293881734212239,
359,359,1517,2021-09-24 15:18:23.078,-0.4412047068277995,
360,360,1521,2021-09-24 15:18:23.082,-0.0905418395996093,
361,361,1525,2021-09-24 15:18:23.086,-0.280141830444336,
362,362,1529,2021-09-24 15:18:23.090,-0.2460765838623047,
363,363,1533,2021-09-24 15:18:23.094,-0.107126235961914,
364,364,1537,2021-09-24 15:18:23.098,-0.4147593180338542,
365,365,1541,2021-09-24 15:18:23.102,-0.078887939453125,
366,366,1545,2021-09-24 15:18:23.106,-0.2792453765869141,
367,367,1549,2021-09-24 15:18:23.110,-0.2462259928385416,
368,368,1553,2021-09-24 15:18:23.114,-0.1105626424153645,
369,369,1557,2021-09-24 15:18:23.118,-0.4122193654378255,
370,370,1561,2021-09-24 15:18:23.122,-0.0697739919026692,
371,371,1565,2021-09-24 15:18:23.126,-0.2680397033691407,
372,372,1569,2021-09-24 15:18:23.130,-0.2324803670247396,
373,373,1573,2021-09-24 15:18:23.134,-0.0987593332926432,
374,374,1577,2021-09-24 15:18:23.138,-0.4140122731526693,
375,375,1581,2021-09-24 15:18:23.142,-0.0821749369303385,
376,376,1585,2021-09-24 15:18:23.146,-0.2693843841552735,
377,377,1589,2021-09-24 15:18:23.150,-0.2161947886149088,
378,378,1593,2021-09-24 15:18:23.154,-0.078290303548177,
379,379,1597,2021-09-24 15:18:23.158,-0.3990713755289714,
380,380,1601,2021-09-24 15:18:23.162,-0.0691763559977213,
381,381,1605,2021-09-24 15:18:23.166,-0.2820841471354167,
382,382,1609,2021-09-24 15:18:23.170,-0.2563858032226563,
383,383,1613,2021-09-24 15:18:23.174,-0.1222165425618489,
384,384,1617,2021-09-24 15:18:23.178,-0.4271602630615235,
385,385,1621,2021-09-24 15:18:23.182,-0.0794855753580729,
386,386,1625,2021-09-24 15:18:23.186,-0.2741654713948568,
387,387,1629,2021-09-24 15:18:23.190,-0.2357673645019531,
388,388,1633,2021-09-24 15:18:23.194,-0.0966676076253255,
389,389,1637,2021-09-24 15:18:23.198,-0.4063924153645833,
390,390,1641,2021-09-24 15:18:23.202,-0.0646940867106119,
391,391,1645,2021-09-24 15:18:23.206,-0.2671432495117188,
392,392,1649,2021-09-24 15:18:23.210,-0.222320556640625,
393,393,1653,2021-09-24 15:18:23.214,-0.0850137074788411,
394,394,1657,2021-09-24 15:18:23.218,-0.3953361511230469,
395,395,1661,2021-09-24 15:18:23.222,-0.050052007039388,
396,396,1665,2021-09-24 15:18:23.226,-0.2544434865315755,
397,397,1669,2021-09-24 15:18:23.230,-0.2271016438802083,
398,398,1673,2021-09-24 15:18:23.234,-0.0894959767659505,
399,399,1677,2021-09-24 15:18:23.238,-0.4037030537923177,
400,400,1681,2021-09-24 15:18:23.242,-0.0799338022867838,
401,401,1685,2021-09-24 15:18:23.246,-0.2985191345214844,
402,402,1689,2021-09-24 15:18:23.250,-0.2840264638264974,
403,403,1693,2021-09-24 15:18:23.254,-0.1665910085042317,
404,404,1697,2021-09-24 15:18:23.258,-0.4636160532633464,
405,405,1701,2021-09-24 15:18:23.262,-0.1108614603678385,
406,406,1705,2021-09-24 15:18:23.266,-0.2913475036621094,
407,407,1709,2021-09-24 15:18:23.270,-0.2392037709554036,
408,408,1713,2021-09-24 15:18:23.274,-0.093231201171875,
409,409,1717,2021-09-24 15:18:23.278,-0.3972784678141277,
410,410,1721,2021-09-24 15:18:23.282,-0.064395268758138,
411,411,1725,2021-09-24 15:18:23.286,-0.2690855662027995,
412,412,1729,2021-09-24 15:18:23.290,-0.2393531799316406,
413,413,1733,2021-09-24 15:18:23.294,-0.1050345102945963,
414,414,1737,2021-09-24 15:18:23.298,-0.4029560089111328,
415,415,1741,2021-09-24 15:18:23.302,-0.0579706827799479,
416,416,1745,2021-09-24 15:18:23.306,-0.2646032969156901,
417,417,1749,2021-09-24 15:18:23.310,-0.2314345041910807,
418,418,1753,2021-09-24 15:18:23.314,-0.0893465677897135,
419,419,1757,2021-09-24 15:18:23.318,-0.3926467895507813,
420,420,1761,2021-09-24 15:18:23.322,-0.0585683186848958,
421,421,1765,2021-09-24 15:18:23.326,-0.2786477406819662,
422,422,1769,2021-09-24 15:18:23.330,-0.2557881673177083,
423,423,1773,2021-09-24 15:18:23.334,-0.1166884104410807,
424,424,1777,2021-09-24 15:18:23.338,-0.4137134552001953,
425,425,1781,2021-09-24 15:18:23.342,-0.0670846303304036,
426,426,1785,2021-09-24 15:18:23.346,-0.265649159749349,
427,427,1789,2021-09-24 15:18:23.350,-0.2378590901692708,
428,428,1793,2021-09-24 15:18:23.354,-0.0914382934570312,
429,429,1797,2021-09-24 15:18:23.358,-0.3399054209391276,
430,430,1801,2021-09-24 15:18:23.362,0.1163895924886067,
431,431,1805,2021-09-24 15:18:23.366,0.0769456227620442,
432,432,1809,2021-09-24 15:18:23.370,0.2669938405354818,
433,433,1813,2021-09-24 15:18:23.374,0.4979801177978516,
434,434,1817,2021-09-24 15:18:23.378,0.1972198486328125,
435,435,1821,2021-09-24 15:18:23.382,0.3935432434082032,
436,436,1825,2021-09-24 15:18:23.386,-0.057373046875,
437,437,1829,2021-09-24 15:18:23.390,-0.4358259836832683,
438,438,1833,2021-09-24 15:18:23.394,-0.7864888509114585,
439,439,1837,2021-09-24 15:18:23.398,-1.4969285329182944,
440,440,1841,2021-09-24 15:18:23.402,-1.4255110422770183,
441,441,1845,2021-09-24 15:18:23.406,-1.5501181284586592,
442,442,1849,2021-09-24 15:18:23.410,-1.2309805552164714,
443,443,1853,2021-09-24 15:18:23.414,-0.6928094228108724,
444,444,1857,2021-09-24 15:18:23.418,-0.5683517456054689,
445,445,1861,2021-09-24 15:18:23.422,0.1156425476074218,
446,446,1865,2021-09-24 15:18:23.426,0.1633040110270182,
447,447,1869,2021-09-24 15:18:23.430,0.2916463216145833,
448,448,1873,2021-09-24 15:18:23.434,0.4187933603922527,
449,449,1877,2021-09-24 15:18:23.438,0.0584189097086588,
450,450,1881,2021-09-24 15:18:23.442,0.3122647603352865,
451,451,1885,2021-09-24 15:18:23.446,0.035559336344401,
452,452,1889,2021-09-24 15:18:23.450,-0.0103092193603515,
453,453,1893,2021-09-24 15:18:23.454,0.0821749369303385,
454,454,1897,2021-09-24 15:18:23.458,-0.2526505788167318,
455,455,1901,2021-09-24 15:18:23.462,0.0521437327067057,
456,456,1905,2021-09-24 15:18:23.466,-0.1739120483398437,
457,457,1909,2021-09-24 15:18:23.470,-0.1667404174804687,
458,458,1913,2021-09-24 15:18:23.474,-0.0693257649739583,
459,459,1917,2021-09-24 15:18:23.478,-0.3960831960042318,
460,460,1921,2021-09-24 15:18:23.482,-0.078738530476888,
461,461,1925,2021-09-24 15:18:23.486,-0.2829806009928385,
462,462,1929,2021-09-24 15:18:23.490,-0.2486165364583333,
463,463,1933,2021-09-24 15:18:23.494,-0.1150449117024739,
464,464,1937,2021-09-24 15:18:23.498,-0.423425038655599,
465,465,1941,2021-09-24 15:18:23.502,-0.0969664255777995,
466,466,1945,2021-09-24 15:18:23.506,-0.3100236256917318,
467,467,1949,2021-09-24 15:18:23.510,-0.2825323740641276,
468,468,1953,2021-09-24 15:18:23.514,-0.1462713877360026,
469,469,1957,2021-09-24 15:18:23.518,-0.4401588439941407,
470,470,1961,2021-09-24 15:18:23.522,-0.0909900665283203,
471,471,1965,2021-09-24 15:18:23.526,-0.2914969126383464,
472,472,1969,2021-09-24 15:18:23.530,-0.2533976236979167,
473,473,1973,2021-09-24 15:18:23.534,-0.1104132334391276,
474,474,1977,2021-09-24 15:18:23.538,-0.4110240936279297,
475,475,1981,2021-09-24 15:18:23.542,-0.078738530476888,
476,476,1985,2021-09-24 15:18:23.546,-0.2931404113769532,
477,477,1989,2021-09-24 15:18:23.550,-0.2761077880859375,
478,478,1993,2021-09-24 15:18:23.554,-0.1447772979736328,
479,479,1997,2021-09-24 15:18:23.558,-0.44464111328125,
480,480,2001,2021-09-24 15:18:23.562,-0.100253423055013,
481,481,2005,2021-09-24 15:18:23.566,-0.2947839101155599,
482,482,2009,2021-09-24 15:18:23.570,-0.2562363942464193,
483,483,2013,2021-09-24 15:18:23.574,-0.1250553131103516,
484,484,2017,2021-09-24 15:18:23.578,-0.4335848490397136,
485,485,2021,2021-09-24 15:18:23.582,-0.0763479868570963,
486,486,2025,2021-09-24 15:18:23.586,-0.2598222096761068,
487,487,2029,2021-09-24 15:18:23.590,-0.2190335591634115,
488,488,2033,2021-09-24 15:18:23.594,-0.0839678446451823,
489,489,2037,2021-09-24 15:18:23.598,-0.3975772857666016,
490,490,2041,2021-09-24 15:18:23.602,-0.0652917226155599,
491,491,2045,2021-09-24 15:18:23.606,-0.2683385213216146,
492,492,2049,2021-09-24 15:18:23.610,-0.2402496337890625,
493,493,2053,2021-09-24 15:18:23.614,-0.1131025950113932,
494,494,2057,2021-09-24 15:18:23.618,-0.4313437143961589,
495,495,2061,2021-09-24 15:18:23.622,-0.0741068522135416,
496,496,2065,2021-09-24 15:18:23.626,-0.2421919504801432,
497,497,2069,2021-09-24 15:18:23.630,-0.1828765869140625,
498,498,2073,2021-09-24 15:18:23.634,-0.0466156005859375,
499,499,2077,2021-09-24 15:18:23.638,-0.3555933634440104,
500,500,2081,2021-09-24 15:18:23.642,-0.0221125284830729,
501,501,2085,2021-09-24 15:18:23.646,-0.2308368682861328,
502,502,2089,2021-09-24 15:18:23.650,-0.2284463246663411,
503,503,2093,2021-09-24 15:18:23.654,-0.1332728068033854,
504,504,2097,2021-09-24 15:18:23.658,-0.4727300008138021,
505,505,2101,2021-09-24 15:18:23.662,-0.1633040110270182,
506,506,2105,2021-09-24 15:18:23.666,-0.3893597920735677,
507,507,2109,2021-09-24 15:18:23.670,-0.351708730061849,
508,508,2113,2021-09-24 15:18:23.674,-0.1818307240804036,
509,509,2117,2021-09-24 15:18:23.678,-0.4577891031901042,
510,510,2121,2021-09-24 15:18:23.682,-0.0959205627441406,
511,511,2125,2021-09-24 15:18:23.686,-0.2843252817789714,
512,512,2129,2021-09-24 15:18:23.690,-0.2393531799316406,
513,513,2133,2021-09-24 15:18:23.694,-0.0945758819580078,
514,514,2137,2021-09-24 15:18:23.698,-0.3989219665527344,
515,515,2141,2021-09-24 15:18:23.702,-0.0623035430908203,
516,516,2145,2021-09-24 15:18:23.706,-0.272970199584961,
517,517,2149,2021-09-24 15:18:23.710,-0.2496623992919922,
518,518,2153,2021-09-24 15:18:23.714,-0.1017475128173828,
519,519,2157,2021-09-24 15:18:23.718,-0.3720283508300782,
520,520,2161,2021-09-24 15:18:23.722,-0.0104586283365885,
521,521,2165,2021-09-24 15:18:23.726,-0.1985645294189453,
522,522,2169,2021-09-24 15:18:23.730,-0.1758543650309245,
523,523,2173,2021-09-24 15:18:23.734,-0.0582695007324218,
524,524,2177,2021-09-24 15:18:23.738,-0.379797617594401,
525,525,2181,2021-09-24 15:18:23.742,-0.0611082712809244,
526,526,2185,2021-09-24 15:18:23.746,-0.2737172444661458,
527,527,2189,2021-09-24 15:18:23.750,-0.2501106262207032,
528,528,2193,2021-09-24 15:18:23.754,-0.1307328542073567,
529,529,2197,2021-09-24 15:18:23.758,-0.4489739735921224,
530,530,2201,2021-09-24 15:18:23.762,-0.107574462890625,
531,531,2205,2021-09-24 15:18:23.766,-0.2910486857096354,
532,532,2209,2021-09-24 15:18:23.770,-0.2281475067138672,
533,533,2213,2021-09-24 15:18:23.774,-0.0756009419759114,
534,534,2217,2021-09-24 15:18:23.778,-0.3747177124023438,
535,535,2221,2021-09-24 15:18:23.782,-0.035260518391927,
536,536,2225,2021-09-24 15:18:23.786,-0.2599716186523438,
537,537,2229,2021-09-24 15:18:23.790,-0.251156489054362,
538,538,2233,2021-09-24 15:18:23.794,-0.1274458567301432,
539,539,2237,2021-09-24 15:18:23.798,-0.4335848490397136,
540,540,2241,2021-09-24 15:18:23.802,-0.0847148895263672,
541,541,2245,2021-09-24 15:18:23.806,-0.2853711446126302,
542,542,2249,2021-09-24 15:18:23.810,-0.2581787109375,
543,543,2253,2021-09-24 15:18:23.814,-0.1305834452311198,
544,544,2257,2021-09-24 15:18:23.818,-0.4328378041585287,
545,545,2261,2021-09-24 15:18:23.822,-0.0775432586669922,
546,546,2265,2021-09-24 15:18:23.826,-0.2599716186523438,
547,547,2269,2021-09-24 15:18:23.830,-0.2217229207356771,
548,548,2273,2021-09-24 15:18:23.834,-0.093231201171875,
549,549,2277,2021-09-24 15:18:23.838,-0.4583867390950521,
550,550,2281,2021-09-24 15:18:23.842,-0.1622581481933594,
551,551,2285,2021-09-24 15:18:23.846,-0.1498572031656901,
552,552,2289,2021-09-24 15:18:23.850,-0.3034496307373047,
553,553,2293,2021-09-24 15:18:23.854,-0.0309276580810546,
554,554,2297,2021-09-24 15:18:23.858,-0.3545475006103516,
555,555,2301,2021-09-24 15:18:23.862,-0.1234118143717448,
556,556,2305,2021-09-24 15:18:23.866,-0.1633040110270182,
557,557,2309,2021-09-24 15:18:23.870,-0.344686508178711,Start
558,558,2313,2021-09-24 15:18:23.874,-0.0464661916097005,
559,559,2317,2021-09-24 15:18:23.878,-0.3557427724202474,
560,560,2321,2021-09-24 15:18:23.882,-0.1326751708984375,
561,561,2325,2021-09-24 15:18:23.886,-0.2054373423258463,
562,562,2329,2021-09-24 15:18:23.890,-0.4047489166259766,
563,563,2333,2021-09-24 15:18:23.894,-0.0965181986490885,
564,564,2337,2021-09-24 15:18:23.898,-0.3687413533528646,
565,565,2341,2021-09-24 15:18:23.902,-0.121469497680664,
566,566,2345,2021-09-24 15:18:23.906,-0.164947509765625,
567,567,2349,2021-09-24 15:18:23.910,-0.365753173828125,
568,568,2353,2021-09-24 15:18:23.914,-0.0893465677897135,
569,569,2357,2021-09-24 15:18:23.918,-0.3936926523844402,
570,570,2361,2021-09-24 15:18:23.922,-0.1498572031656901,
571,571,2365,2021-09-24 15:18:23.926,-0.1843706766764323,
572,572,2369,2021-09-24 15:18:23.930,-0.3475252787272135,
573,573,2373,2021-09-24 15:18:23.934,-0.0488567352294921,
574,574,2377,2021-09-24 15:18:23.938,-0.3494675954182943,
575,575,2381,2021-09-24 15:18:23.942,-0.0944264729817708,
576,576,2385,2021-09-24 15:18:23.946,-0.1392491658528646,
577,577,2389,2021-09-24 15:18:23.950,-0.3252633412679037,
578,578,2393,2021-09-24 15:18:23.954,-0.0464661916097005,
579,579,2397,2021-09-24 15:18:23.958,-0.3509616851806641,
580,580,2401,2021-09-24 15:18:23.962,-0.1123555501302083,
581,581,2405,2021-09-24 15:18:23.966,-0.1625569661458333,
582,582,2409,2021-09-24 15:18:23.970,-0.351858139038086,
583,583,2413,2021-09-24 15:18:23.974,-0.0872548421223958,
584,584,2417,2021-09-24 15:18:23.978,-0.4222297668457032,
585,585,2421,2021-09-24 15:18:23.982,-0.193634033203125,
586,586,2425,2021-09-24 15:18:23.986,-0.2257569630940755,
587,587,2429,2021-09-24 15:18:23.990,-0.38726806640625,
588,588,2433,2021-09-24 15:18:23.994,-0.0942770640055338,
589,589,2437,2021-09-24 15:18:23.998,-0.394887924194336,
590,590,2441,2021-09-24 15:18:24.002,-0.1386515299479166,
591,591,2445,2021-09-24 15:18:24.006,-0.1704756418863932,
592,592,2449,2021-09-24 15:18:24.010,-0.3352737426757813,
593,593,2453,2021-09-24 15:18:24.014,-0.0506496429443359,
594,594,2457,2021-09-24 15:18:24.018,-0.3724765777587891,
595,595,2461,2021-09-24 15:18:24.022,-0.136410395304362,
596,596,2465,2021-09-24 15:18:24.026,-0.1815319061279297,
597,597,2469,2021-09-24 15:18:24.030,-0.3505134582519532,
598,598,2473,2021-09-24 15:18:24.034,-0.0525919596354166,
599,599,2477,2021-09-24 15:18:24.038,-0.3413995107014974,
600,600,2481,2021-09-24 15:18:24.042,-0.0921853383382161,
601,601,2485,2021-09-24 15:18:24.046,-0.1494089762369791,
602,602,2489,2021-09-24 15:18:24.050,-0.3472264607747396,
603,603,2493,2021-09-24 15:18:24.054,-0.0791867574055989,
604,604,2497,2021-09-24 15:18:24.058,-0.3921985626220703,
605,605,2501,2021-09-24 15:18:24.062,-0.1459725697835286,
606,606,2505,2021-09-24 15:18:24.066,-0.1816813151041666,
607,607,2509,2021-09-24 15:18:24.070,-0.3520075480143229,
608,608,2513,2021-09-24 15:18:24.074,-0.0655905405680338,
609,609,2517,2021-09-24 15:18:24.078,-0.3739706675211589,
610,610,2521,2021-09-24 15:18:24.082,-0.1488113403320312,
611,611,2525,2021-09-24 15:18:24.086,-0.1916917165120443,
612,612,2529,2021-09-24 15:18:24.090,-0.3269068400065104,
613,613,2533,2021-09-24 15:18:24.094,0.0472132364908854,
614,614,2537,2021-09-24 15:18:24.098,-0.1258023579915364,
615,615,2541,2021-09-24 15:18:24.102,0.2538458506266276,
616,616,2545,2021-09-24 15:18:24.106,0.3560415903727214,
617,617,2549,2021-09-24 15:18:24.110,0.2631092071533203,
618,618,2553,2021-09-24 15:18:24.114,0.5079905192057292,
619,619,2557,2021-09-24 15:18:24.118,0.0637976328531901,
620,620,2561,2021-09-24 15:18:24.122,-0.0156879425048828,
621,621,2565,2021-09-24 15:18:24.126,-0.502462387084961,
622,622,2569,2021-09-24 15:18:24.130,-1.1514949798583989,
623,623,2573,2021-09-24 15:18:24.134,-1.2565294901529949,
624,624,2577,2021-09-24 15:18:24.138,-1.6730817159016929,
625,625,2581,2021-09-24 15:18:24.142,-1.3554382324218752,
626,626,2585,2021-09-24 15:18:24.146,-1.0743999481201174,
627,627,2589,2021-09-24 15:18:24.150,-0.8643309275309246,
628,628,2593,2021-09-24 15:18:24.154,-0.1582241058349609,
629,629,2597,2021-09-24 15:18:24.158,-0.0890477498372395,
630,630,2601,2021-09-24 15:18:24.162,0.3376642862955729,
631,631,2605,2021-09-24 15:18:24.166,0.3502146402994792,
632,632,2609,2021-09-24 15:18:24.170,0.1293881734212239,
633,633,2613,2021-09-24 15:18:24.174,0.366201400756836,
634,634,2617,2021-09-24 15:18:24.178,0.0177796681722005,
635,635,2621,2021-09-24 15:18:24.182,0.1940822601318359,
636,636,2625,2021-09-24 15:18:24.186,0.0845654805501302,
637,637,2629,2021-09-24 15:18:24.190,-0.1474666595458984,
638,638,2633,2021-09-24 15:18:24.194,0.0860595703125,
639,639,2637,2021-09-24 15:18:24.198,-0.2698326110839844,
640,640,2641,2021-09-24 15:18:24.202,-0.0675328572591145,
641,641,2645,2021-09-24 15:18:24.206,-0.1347668965657552,
642,642,2649,2021-09-24 15:18:24.210,-0.3294467926025391,
643,643,2653,2021-09-24 15:18:24.214,-0.0631999969482422,
644,644,2657,2021-09-24 15:18:24.218,-0.3836822509765625,
645,645,2661,2021-09-24 15:18:24.222,-0.1453749338785807,
646,646,2665,2021-09-24 15:18:24.226,-0.1839224497477213,
647,647,2669,2021-09-24 15:18:24.230,-0.3461805979410807,
648,648,2673,2021-09-24 15:18:24.234,-0.057373046875,
649,649,2677,2021-09-24 15:18:24.238,-0.3780047098795573,
650,650,2681,2021-09-24 15:18:24.242,-0.1683839162190755,
651,651,2685,2021-09-24 15:18:24.246,-0.2256075541178385,
652,652,2689,2021-09-24 15:18:24.250,-0.4025077819824219,
653,653,2693,2021-09-24 15:18:24.254,-0.1201248168945312,
654,654,2697,2021-09-24 15:18:24.258,-0.416552225748698,
655,655,2701,2021-09-24 15:18:24.262,-0.164798100789388,
656,656,2705,2021-09-24 15:18:24.266,-0.1972198486328125,
657,657,2709,2021-09-24 15:18:24.270,-0.3687413533528646,
658,658,2713,2021-09-24 15:18:24.274,-0.0917371114095052,
659,659,2717,2021-09-24 15:18:24.278,-0.3892103830973308,
660,660,2721,2021-09-24 15:18:24.282,-0.1371574401855469,
661,661,2725,2021-09-24 15:18:24.286,-0.1873588562011719,
662,662,2729,2021-09-24 15:18:24.290,-0.3708330790201823,
663,663,2733,2021-09-24 15:18:24.294,-0.0868066151936849,
664,664,2737,2021-09-24 15:18:24.298,-0.3899574279785157,
665,665,2741,2021-09-24 15:18:24.302,-0.1440302530924479,
666,666,2745,2021-09-24 15:18:24.306,-0.1776472727457682,
667,667,2749,2021-09-24 15:18:24.310,-0.3473758697509766,
668,668,2753,2021-09-24 15:18:24.314,-0.0587177276611328,
669,669,2757,2021-09-24 15:18:24.318,-0.3705342610677083,
670,670,2761,2021-09-24 15:18:24.322,-0.1408926645914713,
671,671,2765,2021-09-24 15:18:24.326,-0.200506846110026,
672,672,2769,2021-09-24 15:18:24.330,-0.3836822509765625,
673,673,2773,2021-09-24 15:18:24.334,-0.0851631164550781,
674,674,2777,2021-09-24 15:18:24.338,-0.3717295328776042,
675,675,2781,2021-09-24 15:18:24.342,-0.1128037770589192,
676,676,2785,2021-09-24 15:18:24.346,-0.1459725697835286,
677,677,2789,2021-09-24 15:18:24.350,-0.3242174784342448,
678,678,2793,2021-09-24 15:18:24.354,-0.0415356953938802,
679,679,2797,2021-09-24 15:18:24.358,-0.3415489196777344,
680,680,2801,2021-09-24 15:18:24.362,-0.0890477498372395,
681,681,2805,2021-09-24 15:18:24.366,-0.1262505849202474,
682,682,2809,2021-09-24 15:18:24.370,-0.3040472666422526,
683,683,2813,2021-09-24 15:18:24.374,-0.0342146555582682,
684,684,2817,2021-09-24 15:18:24.378,-0.3663508097330729,
685,685,2821,2021-09-24 15:18:24.382,-0.1531442006429036,
686,686,2825,2021-09-24 15:18:24.386,-0.1969210306803385,
687,687,2829,2021-09-24 15:18:24.390,-0.3860727945963542,
688,688,2833,2021-09-24 15:18:24.394,-0.1192283630371093,
689,689,2837,2021-09-24 15:18:24.398,-0.4421011606852214,
690,690,2841,2021-09-24 15:18:24.402,-0.2178382873535156,
691,691,2845,2021-09-24 15:18:24.406,-0.2429389953613281,
692,692,2849,2021-09-24 15:18:24.410,-0.409081776936849,
693,693,2853,2021-09-24 15:18:24.414,-0.1157919565836588,
694,694,2857,2021-09-24 15:18:24.418,-0.4190921783447266,
695,695,2861,2021-09-24 15:18:24.422,-0.1867612202962239,
696,696,2865,2021-09-24 15:18:24.426,-0.2020009358723958,
697,697,2869,2021-09-24 15:18:24.430,-0.358432133992513,
698,698,2873,2021-09-24 15:18:24.434,-0.0637976328531901,
699,699,2877,2021-09-24 15:18:24.438,-0.3617191314697266,
700,700,2881,2021-09-24 15:18:24.442,-0.1078732808430989,
701,701,2885,2021-09-24 15:18:24.446,-0.1350657145182291,
702,702,2889,2021-09-24 15:18:24.450,-0.3035990397135417,
703,703,2893,2021-09-24 15:18:24.454,-0.0219631195068359,
704,704,2897,2021-09-24 15:18:24.458,-0.3357219696044922,
705,705,2901,2021-09-24 15:18:24.462,-0.100104014078776,
706,706,2905,2021-09-24 15:18:24.466,-0.1370080312093099,
707,707,2909,2021-09-24 15:18:24.470,-0.301357905069987,
708,708,2913,2021-09-24 15:18:24.474,-0.01434326171875,
709,709,2917,2021-09-24 15:18:24.478,-0.3292973836263021,
710,710,2921,2021-09-24 15:18:24.482,-0.1087697347005208,
711,711,2925,2021-09-24 15:18:24.486,-0.1706250508626302,
712,712,2929,2021-09-24 15:18:24.490,-0.3626155853271485,
713,713,2933,2021-09-24 15:18:24.494,-0.0890477498372395,
714,714,2937,2021-09-24 15:18:24.498,-0.3960831960042318,
715,715,2941,2021-09-24 15:18:24.502,-0.150454839070638,
716,716,2945,2021-09-24 15:18:24.506,-0.1901976267496745,
717,717,2949,2021-09-24 15:18:24.510,-0.3635120391845703,
718,718,2953,2021-09-24 15:18:24.514,-0.0829219818115234,
719,719,2957,2021-09-24 15:18:24.518,-0.3930950164794922,
720,720,2961,2021-09-24 15:18:24.522,-0.1585229237874349,
721,721,2965,2021-09-24 15:18:24.526,-0.1921399434407552,
722,722,2969,2021-09-24 15:18:24.530,-0.3484217325846354,
723,723,2973,2021-09-24 15:18:24.534,-0.0548330942789713,
724,724,2977,2021-09-24 15:18:24.538,-0.351559321085612,
725,725,2981,2021-09-24 15:18:24.542,-0.1111602783203125,
726,726,2985,2021-09-24 15:18:24.546,-0.1631546020507812,
727,727,2989,2021-09-24 15:18:24.550,-0.343939463297526,
728,728,2993,2021-09-24 15:18:24.554,-0.0663375854492187,
729,729,2997,2021-09-24 15:18:24.558,-0.387118657430013,
730,730,3001,2021-09-24 15:18:24.562,-0.1568794250488281,
731,731,3005,2021-09-24 15:18:24.566,-0.2048397064208984,
732,732,3009,2021-09-24 15:18:24.570,-0.3709824879964193,
733,733,3013,2021-09-24 15:18:24.574,-0.0751527150472005,
734,734,3017,2021-09-24 15:18:24.578,-0.380544662475586,
735,735,3021,2021-09-24 15:18:24.582,-0.1344680786132812,
736,736,3025,2021-09-24 15:18:24.586,-0.1624075571695963,
737,737,3029,2021-09-24 15:18:24.590,-0.3182411193847657,
738,738,3033,2021-09-24 15:18:24.594,-0.0236066182454427,
739,739,3037,2021-09-24 15:18:24.598,-0.3387101491292318,
740,740,3041,2021-09-24 15:18:24.602,-0.1189295450846354,
741,741,3045,2021-09-24 15:18:24.606,-0.1833248138427734,
742,742,3049,2021-09-24 15:18:24.610,-0.3703848520914714,
743,743,3053,2021-09-24 15:18:24.614,-0.0824737548828125,
744,744,3057,2021-09-24 15:18:24.618,-0.3865210215250652,
745,745,3061,2021-09-24 15:18:24.622,-0.1476160685221354,
746,746,3065,2021-09-24 15:18:24.626,-0.1982657114664713,
747,747,3069,2021-09-24 15:18:24.630,-0.373074213663737,
748,748,3073,2021-09-24 15:18:24.634,-0.0826231638590494,
749,749,3077,2021-09-24 15:18:24.638,-0.3829352060953777,
750,750,3081,2021-09-24 15:18:24.642,-0.1367092132568359,
751,751,3085,2021-09-24 15:18:24.646,-0.1757049560546875,
752,752,3089,2021-09-24 15:18:24.650,-0.3473758697509766,
753,753,3093,2021-09-24 15:18:24.654,-0.0466156005859375,
754,754,3097,2021-09-24 15:18:24.658,-0.3436406453450521,
755,755,3101,2021-09-24 15:18:24.662,-0.107425053914388,
756,756,3105,2021-09-24 15:18:24.666,-0.1707744598388672,
757,757,3109,2021-09-24 15:18:24.670,-0.3530534108479818,
758,758,3113,2021-09-24 15:18:24.674,-0.0690269470214843,
759,759,3117,2021-09-24 15:18:24.678,-0.3669484456380208,
760,760,3121,2021-09-24 15:18:24.682,-0.114447275797526,
761,761,3125,2021-09-24 15:18:24.686,-0.1621087392171224,
762,762,3129,2021-09-24 15:18:24.690,-0.3475252787272135,
763,763,3133,2021-09-24 15:18:24.694,-0.0829219818115234,
764,764,3137,2021-09-24 15:18:24.698,-0.3954855600992839,
765,765,3141,2021-09-24 15:18:24.702,-0.1428349812825521,
766,766,3145,2021-09-24 15:18:24.706,-0.1706250508626302,
767,767,3149,2021-09-24 15:18:24.710,-0.3376642862955729,
768,768,3153,2021-09-24 15:18:24.714,-0.0475120544433593,
769,769,3157,2021-09-24 15:18:24.718,-0.3463300069173177,
770,770,3161,2021-09-24 15:18:24.722,-0.1027933756510416,
771,771,3165,2021-09-24 15:18:24.726,-0.1586723327636719,
772,772,3169,2021-09-24 15:18:24.730,-0.34423828125,
773,773,3173,2021-09-24 15:18:24.734,-0.0766468048095703,
774,774,3177,2021-09-24 15:18:24.738,-0.3981749216715495,
775,775,3181,2021-09-24 15:18:24.742,-0.1662921905517578,
776,776,3185,2021-09-24 15:18:24.746,-0.2090231577555338,
777,777,3189,2021-09-24 15:18:24.750,-0.3850269317626953,
778,778,3193,2021-09-24 15:18:24.754,-0.0954723358154297,
779,779,3197,2021-09-24 15:18:24.758,-0.3981749216715495,
780,780,3201,2021-09-24 15:18:24.762,-0.1573276519775391,
781,781,3205,2021-09-24 15:18:24.766,-0.1987139383951823,
782,782,3209,2021-09-24 15:18:24.770,-0.3653049468994141,
783,783,3213,2021-09-24 15:18:24.774,-0.0681304931640625,
784,784,3217,2021-09-24 15:18:24.778,-0.358880360921224,
785,785,3221,2021-09-24 15:18:24.782,-0.1177342732747395,
786,786,3225,2021-09-24 15:18:24.786,-0.171969731648763,
787,787,3229,2021-09-24 15:18:24.790,-0.3378136952718099,
788,788,3233,2021-09-24 15:18:24.794,-0.0509484608968099,
789,789,3237,2021-09-24 15:18:24.798,-0.3496170043945313,
790,790,3241,2021-09-24 15:18:24.802,-0.121320088704427,
791,791,3245,2021-09-24 15:18:24.806,-0.1489607493082682,
792,792,3249,2021-09-24 15:18:24.810,-0.3243668874104818,
793,793,3253,2021-09-24 15:18:24.814,-0.0555801391601562,
794,794,3257,2021-09-24 15:18:24.818,-0.3687413533528646,
795,795,3261,2021-09-24 15:18:24.822,-0.1355139414469401,
796,796,3265,2021-09-24 15:18:24.826,-0.1788425445556641,
797,797,3269,2021-09-24 15:18:24.830,-0.3418477376302083,
798,798,3273,2021-09-24 15:18:24.834,-0.0676822662353515,
799,799,3277,2021-09-24 15:18:24.838,-0.3902562459309896,
800,800,3281,2021-09-24 15:18:24.842,-0.3148047129313151,
801,801,3285,2021-09-24 15:18:24.846,-0.1131025950113932,
802,802,3289,2021-09-24 15:18:24.850,-0.3829352060953777,
803,803,3293,2021-09-24 15:18:24.854,-0.021514892578125,
804,804,3297,2021-09-24 15:18:24.858,-0.165096918741862,
805,805,3301,2021-09-24 15:18:24.862,-0.0243536631266276,
806,806,3305,2021-09-24 15:18:24.866,0.2672926584879557,
807,807,3309,2021-09-24 15:18:24.870,0.1422373453776041,
808,808,3313,2021-09-24 15:18:24.874,0.5493768056233724,
809,809,3317,2021-09-24 15:18:24.878,0.3336302439371745,
810,810,3321,2021-09-24 15:18:24.882,0.2054373423258463,
811,811,3325,2021-09-24 15:18:24.886,0.0540860493977864,
812,812,3329,2021-09-24 15:18:24.890,-0.6585947672526042,
813,813,3333,2021-09-24 15:18:24.894,-0.8508841196695964,
814,814,3337,2021-09-24 15:18:24.898,-1.4429918924967449,
815,815,3341,2021-09-24 15:18:24.902,-1.6201909383138022,
816,816,3345,2021-09-24 15:18:24.906,-1.3999621073404949,
817,817,3349,2021-09-24 15:18:24.910,-1.3724708557128908,
818,818,3353,2021-09-24 15:18:24.914,-0.6620311737060548,
819,819,3357,2021-09-24 15:18:24.918,-0.4358259836832683,
820,820,3361,2021-09-24 15:18:24.922,-0.050052007039388,
821,821,3365,2021-09-24 15:18:24.926,0.3496170043945313,
822,822,3369,2021-09-24 15:18:24.930,0.1755555470784505,
823,823,3373,2021-09-24 15:18:24.934,0.4999224344889323,
824,824,3377,2021-09-24 15:18:24.938,0.2345720926920573,
825,825,3381,2021-09-24 15:18:24.942,0.1526959737141927,
826,826,3385,2021-09-24 15:18:24.946,0.2318827311197916,
827,827,3389,2021-09-24 15:18:24.950,-0.1160907745361328,
828,828,3393,2021-09-24 15:18:24.954,0.1628557840983073,
829,829,3397,2021-09-24 15:18:24.958,-0.0936794281005859,
830,830,3401,2021-09-24 15:18:24.962,-0.1126543680826823,
831,831,3405,2021-09-24 15:18:24.966,-0.0256983439127604,
832,832,3409,2021-09-24 15:18:24.970,-0.3579839070638021,
833,833,3413,2021-09-24 15:18:24.974,-0.0409380594889322,
834,834,3417,2021-09-24 15:18:24.978,-0.2502600351969401,
835,835,3421,2021-09-24 15:18:24.982,-0.2344226837158203,
836,836,3425,2021-09-24 15:18:24.986,-0.1129531860351562,
837,837,3429,2021-09-24 15:18:24.990,-0.437320073445638,
838,838,3433,2021-09-24 15:18:24.994,-0.1198259989420573,
839,839,3437,2021-09-24 15:18:24.998,-0.3188387552897135,
840,840,3441,2021-09-24 15:18:25.002,-0.2861181894938151,
841,841,3445,2021-09-24 15:18:25.006,-0.1461219787597656,
842,842,3449,2021-09-24 15:18:25.010,-0.4561456044514974,
843,843,3453,2021-09-24 15:18:25.014,-0.1204236348470052,
844,844,3457,2021-09-24 15:18:25.018,-0.3031508127848307,
845,845,3461,2021-09-24 15:18:25.022,-0.2571328481038412,
846,846,3465,2021-09-24 15:18:25.026,-0.1183319091796875,
847,847,3469,2021-09-24 15:18:25.030,-0.4156557718912761,
848,848,3473,2021-09-24 15:18:25.034,-0.092932383219401,
849,849,3477,2021-09-24 15:18:25.038,-0.3003120422363282,
850,850,3481,2021-09-24 15:18:25.042,-0.2701314290364583,
851,851,3485,2021-09-24 15:18:25.046,-0.1226647694905599,
852,852,3489,2021-09-24 15:18:25.050,-0.4028065999348958,
853,853,3493,2021-09-24 15:18:25.054,-0.0649929046630859,
854,854,3497,2021-09-24 15:18:25.058,-0.2720737457275391,
855,855,3501,2021-09-24 15:18:25.062,-0.2504094441731771,
856,856,3505,2021-09-24 15:18:25.066,-0.1243082682291666,
857,857,3509,2021-09-24 15:18:25.070,-0.4126675923665365,
858,858,3513,2021-09-24 15:18:25.074,-0.0678316752115885,
859,859,3517,2021-09-24 15:18:25.078,-0.2634080251057943,
860,860,3521,2021-09-24 15:18:25.082,-0.2392037709554036,
861,861,3525,2021-09-24 15:18:25.086,-0.1199754079182942,
862,862,3529,2021-09-24 15:18:25.090,-0.4364236195882162,
863,863,3533,2021-09-24 15:18:25.094,-0.1093673706054687,
864,864,3537,2021-09-24 15:18:25.098,-0.3074836730957032,
865,865,3541,2021-09-24 15:18:25.102,-0.2519035339355469,
866,866,3545,2021-09-24 15:18:25.106,-0.0965181986490885,
867,867,3549,2021-09-24 15:18:25.110,-0.4051971435546875,
868,868,3553,2021-09-24 15:18:25.114,-0.0760491689046224,
869,869,3557,2021-09-24 15:18:25.118,-0.2598222096761068,
870,870,3561,2021-09-24 15:18:25.122,-0.2025985717773437,
871,871,3565,2021-09-24 15:18:25.126,-0.0596141815185546,
872,872,3569,2021-09-24 15:18:25.130,-0.3650061289469401,
873,873,3573,2021-09-24 15:18:25.134,-0.0361569722493489,
874,874,3577,2021-09-24 15:18:25.138,-0.2377096811930338,
875,875,3581,2021-09-24 15:18:25.142,-0.2017021179199219,
876,876,3585,2021-09-24 15:18:25.146,-0.0897947947184244,
877,877,3589,2021-09-24 15:18:25.150,-0.4117711385091146,
878,878,3593,2021-09-24 15:18:25.154,-0.0923347473144531,
879,879,3597,2021-09-24 15:18:25.158,-0.2980709075927735,
880,880,3601,2021-09-24 15:18:25.162,-0.2855205535888672,
881,881,3605,2021-09-24 15:18:25.166,-0.1797389984130859,
882,882,3609,2021-09-24 15:18:25.170,-0.5099328358968099,
883,883,3613,2021-09-24 15:18:25.174,-0.1852671305338541,
884,884,3617,2021-09-24 15:18:25.178,-0.3666496276855469,
885,885,3621,2021-09-24 15:18:25.182,-0.3151035308837891,
886,886,3625,2021-09-24 15:18:25.186,-0.1558335622151692,
887,887,3629,2021-09-24 15:18:25.190,-0.4314931233723958,
888,888,3633,2021-09-24 15:18:25.194,-0.0735092163085937,
889,889,3637,2021-09-24 15:18:25.198,-0.2487659454345703,
890,890,3641,2021-09-24 15:18:25.202,-0.1913928985595703,
891,891,3645,2021-09-24 15:18:25.206,-0.0597635904947916,
892,892,3649,2021-09-24 15:18:25.210,-0.3744188944498698,
893,893,3653,2021-09-24 15:18:25.214,-0.0403404235839843,
894,894,3657,2021-09-24 15:18:25.218,-0.2329285939534505,
895,895,3661,2021-09-24 15:18:25.222,-0.1876576741536458,
896,896,3665,2021-09-24 15:18:25.226,-0.0608094533284505,
897,897,3669,2021-09-24 15:18:25.230,-0.3744188944498698,
898,898,3673,2021-09-24 15:18:25.234,-0.0536378224690755,
899,899,3677,2021-09-24 15:18:25.238,-0.2495129903157552,
900,900,3681,2021-09-24 15:18:25.242,-0.2106666564941406,
901,901,3685,2021-09-24 15:18:25.246,-0.0802326202392578,
902,902,3689,2021-09-24 15:18:25.250,-0.3916009267171224,
903,903,3693,2021-09-24 15:18:25.254,-0.0685787200927734,
904,904,3697,2021-09-24 15:18:25.258,-0.2747631072998047,
905,905,3701,2021-09-24 15:18:25.262,-0.2402496337890625,
906,906,3705,2021-09-24 15:18:25.266,-0.0915877024332682,
907,907,3709,2021-09-24 15:18:25.270,-0.3920491536458333,
908,908,3713,2021-09-24 15:18:25.274,-0.0652917226155599,
909,909,3717,2021-09-24 15:18:25.278,-0.2666950225830078,
910,910,3721,2021-09-24 15:18:25.282,-0.2608680725097657,
911,911,3725,2021-09-24 15:18:25.286,-0.150604248046875,
912,912,3729,2021-09-24 15:18:25.290,-0.4531574249267578,
913,913,3733,2021-09-24 15:18:25.294,-0.1027933756510416,
914,914,3737,2021-09-24 15:18:25.298,-0.2813371022542318,
915,915,3741,2021-09-24 15:18:25.302,-0.2415943145751953,
916,916,3745,2021-09-24 15:18:25.306,-0.1026439666748047,
917,917,3749,2021-09-24 15:18:25.310,-0.4129664103190105,
918,918,3753,2021-09-24 15:18:25.314,-0.0738080342610677,
919,919,3757,2021-09-24 15:18:25.318,-0.2539952596028646,
920,920,3761,2021-09-24 15:18:25.322,-0.222619374593099,
921,921,3765,2021-09-24 15:18:25.326,-0.1036898295084635,
922,922,3769,2021-09-24 15:18:25.330,-0.416103998819987,
923,923,3773,2021-09-24 15:18:25.334,-0.0875536600748698,
924,924,3777,2021-09-24 15:18:25.338,-0.2811876932779948,
925,925,3781,2021-09-24 15:18:25.342,-0.2442836761474609,
926,926,3785,2021-09-24 15:18:25.346,-0.1098155975341797,
927,927,3789,2021-09-24 15:18:25.350,-0.4155063629150391,
928,928,3793,2021-09-24 15:18:25.354,-0.0944264729817708,
929,929,3797,2021-09-24 15:18:25.358,-0.2922439575195313,
930,930,3801,2021-09-24 15:18:25.362,-0.2442836761474609,
931,931,3805,2021-09-24 15:18:25.366,-0.1059309641520182,
932,932,3809,2021-09-24 15:18:25.370,-0.4074382781982422,
933,933,3813,2021-09-24 15:18:25.374,-0.0808302561442057,
934,934,3817,2021-09-24 15:18:25.378,-0.2877616882324219,
935,935,3821,2021-09-24 15:18:25.382,-0.2568340301513672,
936,936,3825,2021-09-24 15:18:25.386,-0.1154931386311849,
937,937,3829,2021-09-24 15:18:25.390,-0.3978761037190755,
938,938,3833,2021-09-24 15:18:25.394,-0.0587177276611328,
939,939,3837,2021-09-24 15:18:25.398,-0.2605692545572917,
940,940,3841,2021-09-24 15:18:25.402,-0.2206770579020182,
941,941,3845,2021-09-24 15:18:25.406,-0.0860595703125,
942,942,3849,2021-09-24 15:18:25.410,-0.3966808319091797,
943,943,3853,2021-09-24 15:18:25.414,-0.0799338022867838,
944,944,3857,2021-09-24 15:18:25.418,-0.3028519948323568,
945,945,3861,2021-09-24 15:18:25.422,-0.2693843841552735,
946,946,3865,2021-09-24 15:18:25.426,-0.1156425476074218,
947,947,3869,2021-09-24 15:18:25.430,-0.3862222035725912,
948,948,3873,2021-09-24 15:18:25.434,-0.0404898325602213,
949,949,3877,2021-09-24 15:18:25.438,-0.2412954966227213,
950,950,3881,2021-09-24 15:18:25.442,-0.222619374593099,
951,951,3885,2021-09-24 15:18:25.446,-0.1187801361083984,
952,952,3889,2021-09-24 15:18:25.450,-0.4316425323486328,
953,953,3893,2021-09-24 15:18:25.454,-0.099805196126302,
954,954,3897,2021-09-24 15:18:25.458,-0.2928415934244792,
955,955,3901,2021-09-24 15:18:25.462,-0.2529493967692057,
956,956,3905,2021-09-24 15:18:25.466,-0.1243082682291666,
957,957,3909,2021-09-24 15:18:25.470,-0.4210344950358073,
958,958,3913,2021-09-24 15:18:25.474,-0.0655905405680338,
959,959,3917,2021-09-24 15:18:25.478,-0.243686040242513,
960,960,3921,2021-09-24 15:18:25.482,-0.1993115743001302,
961,961,3925,2021-09-24 15:18:25.486,-0.0735092163085937,
962,962,3929,2021-09-24 15:18:25.490,-0.3721777598063151,
963,963,3933,2021-09-24 15:18:25.494,-0.0469144185384114,
964,964,3937,2021-09-24 15:18:25.498,-0.258328119913737,
965,965,3941,2021-09-24 15:18:25.502,-0.2232170104980469,
966,966,3945,2021-09-24 15:18:25.506,-0.0996557871500651,
967,967,3949,2021-09-24 15:18:25.510,-0.423126220703125,
968,968,3953,2021-09-24 15:18:25.514,-0.1102638244628906,
969,969,3957,2021-09-24 15:18:25.518,-0.3168964385986328,
970,970,3961,2021-09-24 15:18:25.522,-0.2814865112304688,
971,971,3965,2021-09-24 15:18:25.526,-0.1489607493082682,
972,972,3969,2021-09-24 15:18:25.530,-0.4341824849446615,
973,973,3973,2021-09-24 15:18:25.534,-0.0823243459065755,
974,974,3977,2021-09-24 15:18:25.538,-0.2632586161295573,
975,975,3981,2021-09-24 15:18:25.542,-0.2275498708089193,
976,976,3985,2021-09-24 15:18:25.546,-0.1122061411539713,
977,977,3989,2021-09-24 15:18:25.550,-0.4144605000813802,
978,978,3993,2021-09-24 15:18:25.554,-0.0883007049560547,
979,979,3997,2021-09-24 15:18:25.558,-0.286715825398763,
980,980,4001,2021-09-24 15:18:25.562,-0.2448813120524088,
981,981,4005,2021-09-24 15:18:25.566,-0.1102638244628906,
982,982,4009,2021-09-24 15:18:25.570,-0.3923479715983073,
983,983,4013,2021-09-24 15:18:25.574,-0.0554307301839192,
984,984,4017,2021-09-24 15:18:25.578,-0.2554893493652344,
985,985,4021,2021-09-24 15:18:25.582,-0.2315839131673177,
986,986,4025,2021-09-24 15:18:25.586,-0.1015981038411458,
987,987,4029,2021-09-24 15:18:25.590,-0.3963820139567058,
988,988,4033,2021-09-24 15:18:25.594,-0.0703716278076172,
989,989,4037,2021-09-24 15:18:25.598,-0.2714761098225912,
990,990,4041,2021-09-24 15:18:25.602,-0.2161947886149088,
991,991,4045,2021-09-24 15:18:25.606,-0.0808302561442057,
992,992,4049,2021-09-24 15:18:25.610,-0.3968302408854167,
993,993,4053,2021-09-24 15:18:25.614,-0.0790373484293619,
994,994,4057,2021-09-24 15:18:25.618,-0.2917957305908203,
995,995,4061,2021-09-24 15:18:25.622,-0.2616151173909505,
996,996,4065,2021-09-24 15:18:25.626,-0.0866572062174479,
997,997,4069,2021-09-24 15:18:25.630,-0.2908992767333985,
998,998,4073,2021-09-24 15:18:25.634,0.1822789510091146,
999,999,4077,2021-09-24 15:18:25.638,0.1561323801676432,
1000,1000,4081,2021-09-24 15:18:25.642,0.3267574310302735,
1001,1001,4085,2021-09-24 15:18:25.646,0.5162080128987631,
1002,1002,4089,2021-09-24 15:18:25.650,0.1887035369873047,
1003,1003,4093,2021-09-24 15:18:25.654,0.3415489196777344,
1004,1004,4097,2021-09-24 15:18:25.658,-0.1561323801676432,
1005,1005,4101,2021-09-24 15:18:25.662,-0.5690987904866537,
1006,1006,4105,2021-09-24 15:18:25.666,-0.939931869506836,
1007,1007,4109,2021-09-24 15:18:25.670,-1.61585807800293,
1008,1008,4113,2021-09-24 15:18:25.674,-1.4981238047281902,
1009,1009,4117,2021-09-24 15:18:25.678,-1.5777587890625002,
1010,1010,4121,2021-09-24 15:18:25.682,-1.2247053782145183,
1011,1011,4125,2021-09-24 15:18:25.686,-0.6506760915120443,
1012,1012,4129,2021-09-24 15:18:25.690,-0.4819933573404948,
1013,1013,4133,2021-09-24 15:18:25.694,0.2055867513020833,
1014,1014,4137,2021-09-24 15:18:25.698,0.2347215016682943,
1015,1015,4141,2021-09-24 15:18:25.702,0.3411006927490235,
1016,1016,4145,2021-09-24 15:18:25.706,0.4477787017822266,
1017,1017,4149,2021-09-24 15:18:25.710,0.0888983408610026,
1018,1018,4153,2021-09-24 15:18:25.714,0.3292973836263021,
1019,1019,4157,2021-09-24 15:18:25.718,0.042880376180013,
1020,1020,4161,2021-09-24 15:18:25.722,-0.0041834513346354,
1021,1021,4165,2021-09-24 15:18:25.726,0.0705210367838541,
1022,1022,4169,2021-09-24 15:18:25.730,-0.2553399403889974,
1023,1023,4173,2021-09-24 15:18:25.734,0.0603612263997395,
1024,1024,4177,2021-09-24 15:18:25.738,-0.1677862803141276,
1025,1025,4181,2021-09-24 15:18:25.742,-0.1640510559082031,
1026,1026,4185,2021-09-24 15:18:25.746,-0.0726127624511718,
1027,1027,4189,2021-09-24 15:18:25.750,-0.4059441884358724,
1028,1028,4193,2021-09-24 15:18:25.754,-0.0948746999104817,
1029,1029,4197,2021-09-24 15:18:25.758,-0.2971744537353516,
1030,1030,4201,2021-09-24 15:18:25.762,-0.2533976236979167,
1031,1031,4205,2021-09-24 15:18:25.766,-0.1104132334391276,
1032,1032,4209,2021-09-24 15:18:25.770,-0.4065418243408203,
1033,1033,4213,2021-09-24 15:18:25.774,-0.0947252909342448,
1034,1034,4217,2021-09-24 15:18:25.778,-0.3098742167154948,
1035,1035,4221,2021-09-24 15:18:25.782,-0.2949333190917969,
1036,1036,4225,2021-09-24 15:18:25.786,-0.178991953531901,
1037,1037,4229,2021-09-24 15:18:25.790,-0.4643630981445313,
1038,1038,4233,2021-09-24 15:18:25.794,-0.1184813181559245,
1039,1039,4237,2021-09-24 15:18:25.798,-0.2950827280680339,
1040,1040,4241,2021-09-24 15:18:25.802,-0.2398014068603516,
1041,1041,4245,2021-09-24 15:18:25.806,-0.1054827372233073,
1042,1042,4249,2021-09-24 15:18:25.810,-0.4181957244873047,
1043,1043,4253,2021-09-24 15:18:25.814,-0.0984605153401692,
1044,1044,4257,2021-09-24 15:18:25.818,-0.3000132242838542,
1045,1045,4261,2021-09-24 15:18:25.822,-0.2519035339355469,
1046,1046,4265,2021-09-24 15:18:25.826,-0.0981616973876953,
1047,1047,4269,2021-09-24 15:18:25.830,-0.3850269317626953,
1048,1048,4273,2021-09-24 15:18:25.834,-0.064245859781901,
1049,1049,4277,2021-09-24 15:18:25.838,-0.2919451395670573,
1050,1050,4281,2021-09-24 15:18:25.842,-0.4492727915445964,
1051,1051,4285,2021-09-24 15:18:25.846,-0.0799338022867838,
1052,1052,4289,2021-09-24 15:18:25.850,-0.3222751617431641,
1053,1053,4293,2021-09-24 15:18:25.854,-0.0815773010253906,
1054,1054,4297,2021-09-24 15:18:25.858,-0.1582241058349609,
1055,1055,4301,2021-09-24 15:18:25.862,-0.3546969095865885,
1056,1056,4305,2021-09-24 15:18:25.866,-0.0885995229085286,
1057,1057,4309,2021-09-24 15:18:25.870,-0.387417475382487,
1058,1058,4313,2021-09-24 15:18:25.874,-0.1488113403320312,
1059,1059,4317,2021-09-24 15:18:25.878,-0.1928869883219401,
1060,1060,4321,2021-09-24 15:18:25.882,-0.365454355875651,
1061,1061,4325,2021-09-24 15:18:25.886,-0.0696245829264323,
1062,1062,4329,2021-09-24 15:18:25.890,-0.3455829620361328,
1063,1063,4333,2021-09-24 15:18:25.894,-0.1063791910807291,
1064,1064,4337,2021-09-24 15:18:25.898,-0.172119140625,
1065,1065,4341,2021-09-24 15:18:25.902,-0.3403536478678385,
1066,1066,4345,2021-09-24 15:18:25.906,-0.0415356953938802,
1067,1067,4349,2021-09-24 15:18:25.910,-0.3215281168619792,
1068,1068,4353,2021-09-24 15:18:25.914,-0.0830713907877604,
1069,1069,4357,2021-09-24 15:18:25.918,-0.1480642954508463,
1070,1070,4361,2021-09-24 15:18:25.922,-0.3488699595133464,
1071,1071,4365,2021-09-24 15:18:25.926,-0.0918865203857422,
1072,1072,4369,2021-09-24 15:18:25.930,-0.4113229115804037,
1073,1073,4373,2021-09-24 15:18:25.934,-0.2039432525634766,
1074,1074,4377,2021-09-24 15:18:25.938,-0.2717749277750651,
1075,1075,4381,2021-09-24 15:18:25.942,-0.4440434773763021,
1076,1076,4385,2021-09-24 15:18:25.946,-0.1441796620686849,
1077,1077,4389,2021-09-24 15:18:25.950,-0.4126675923665365,
1078,1078,4393,2021-09-24 15:18:25.954,-0.1619593302408854,
1079,1079,4397,2021-09-24 15:18:25.958,-0.2025985717773437,
1080,1080,4401,2021-09-24 15:18:25.962,-0.3563404083251953,
1081,1081,4405,2021-09-24 15:18:25.966,-0.0612576802571614,
1082,1082,4409,2021-09-24 15:18:25.970,-0.3484217325846354,
1083,1083,4413,2021-09-24 15:18:25.974,-0.0996557871500651,
1084,1084,4417,2021-09-24 15:18:25.978,-0.1483631134033203,
1085,1085,4421,2021-09-24 15:18:25.982,-0.3183905283610026,
1086,1086,4425,2021-09-24 15:18:25.986,-0.0422827402750651,
1087,1087,4429,2021-09-24 15:18:25.990,-0.3336302439371745,
1088,1088,4433,2021-09-24 15:18:25.994,-0.0830713907877604,
1089,1089,4437,2021-09-24 15:18:25.998,-0.1083215077718099,
1090,1090,4441,2021-09-24 15:18:26.002,-0.286865234375,
1091,1091,4445,2021-09-24 15:18:26.006,-0.0225607554117838,
1092,1092,4449,2021-09-24 15:18:26.010,-0.3535016377766927,
1093,1093,4453,2021-09-24 15:18:26.014,-0.1494089762369791,
1094,1094,4457,2021-09-24 15:18:26.018,-0.2209758758544922,
1095,1095,4461,2021-09-24 15:18:26.022,-0.3824869791666667,
1096,1096,4465,2021-09-24 15:18:26.026,-0.0817267100016276,
1097,1097,4469,2021-09-24 15:18:26.030,-0.3742694854736328,
1098,1098,4473,2021-09-24 15:18:26.034,-0.1349163055419922,
1099,1099,4477,2021-09-24 15:18:26.038,-0.1827271779378255,
1100,1100,4481,2021-09-24 15:18:26.042,-0.3567886352539063,
1101,1101,4485,2021-09-24 15:18:26.046,-0.0811290740966797,
1102,1102,4489,2021-09-24 15:18:26.050,-0.3818893432617188,
1103,1103,4493,2021-09-24 15:18:26.054,-0.1434326171875,
1104,1104,4497,2021-09-24 15:18:26.058,-0.1807848612467448,
1105,1105,4501,2021-09-24 15:18:26.062,-0.3466288248697917,
1106,1106,4505,2021-09-24 15:18:26.066,-0.071268081665039,
1107,1107,4509,2021-09-24 15:18:26.070,-0.3772576649983724,
1108,1108,4513,2021-09-24 15:18:26.074,-0.1346174875895182,
1109,1109,4517,2021-09-24 15:18:26.078,-0.1640510559082031,
1110,1110,4521,2021-09-24 15:18:26.082,-0.3272056579589844,
1111,1111,4525,2021-09-24 15:18:26.086,-0.0540860493977864,
1112,1112,4529,2021-09-24 15:18:26.090,-0.3665002187093099,
1113,1113,4533,2021-09-24 15:18:26.094,-0.1265494028727213,
1114,1114,4537,2021-09-24 15:18:26.098,-0.1833248138427734,
1115,1115,4541,2021-09-24 15:18:26.102,-0.3632132212320964,
1116,1116,4545,2021-09-24 15:18:26.106,-0.0850137074788411,
1117,1117,4549,2021-09-24 15:18:26.110,-0.3868198394775391,
1118,1118,4553,2021-09-24 15:18:26.114,-0.1609134674072266,
1119,1119,4557,2021-09-24 15:18:26.118,-0.1975186665852865,
1120,1120,4561,2021-09-24 15:18:26.122,-0.343939463297526,
1121,1121,4565,2021-09-24 15:18:26.126,-0.0470638275146484,
1122,1122,4569,2021-09-24 15:18:26.130,-0.3599262237548828,
1123,1123,4573,2021-09-24 15:18:26.134,-0.1458231608072916,
1124,1124,4577,2021-09-24 15:18:26.138,-0.2075290679931641,
1125,1125,4581,2021-09-24 15:18:26.142,-0.3632132212320964,
1126,1126,4585,2021-09-24 15:18:26.146,-0.0596141815185546,
1127,1127,4589,2021-09-24 15:18:26.150,-0.3567886352539063,
1128,1128,4593,2021-09-24 15:18:26.154,-0.1184813181559245,
1129,1129,4597,2021-09-24 15:18:26.158,-0.1633040110270182,
1130,1130,4601,2021-09-24 15:18:26.162,-0.3333314259847005,
1131,1131,4605,2021-09-24 15:18:26.166,-0.0540860493977864,
1132,1132,4609,2021-09-24 15:18:26.170,-0.3678448994954427,
1133,1133,4613,2021-09-24 15:18:26.174,-0.1480642954508463,
1134,1134,4617,2021-09-24 15:18:26.178,-0.2030467987060547,
1135,1135,4621,2021-09-24 15:18:26.182,-0.3699366251627604,
1136,1136,4625,2021-09-24 15:18:26.186,-0.078738530476888,
1137,1137,4629,2021-09-24 15:18:26.190,-0.3845787048339844,
1138,1138,4633,2021-09-24 15:18:26.194,-0.1519489288330078,
1139,1139,4637,2021-09-24 15:18:26.198,-0.2030467987060547,
1140,1140,4641,2021-09-24 15:18:26.202,-0.366051991780599,
1141,1141,4645,2021-09-24 15:18:26.206,-0.0239054361979166,
1142,1142,4649,2021-09-24 15:18:26.210,-0.2929910024007162,
1143,1143,4653,2021-09-24 15:18:26.214,-0.0624529520670572,
1144,1144,4657,2021-09-24 15:18:26.218,-0.1343186696370442,
1145,1145,4661,2021-09-24 15:18:26.222,-0.3485711415608724,
1146,1146,4665,2021-09-24 15:18:26.226,-0.064395268758138,
1147,1147,4669,2021-09-24 15:18:26.230,-0.3597768147786458,
1148,1148,4673,2021-09-24 15:18:26.234,-0.1281929016113281,
1149,1149,4677,2021-09-24 15:18:26.238,-0.1970704396565755,
1150,1150,4681,2021-09-24 15:18:26.242,-0.380395253499349,
1151,1151,4685,2021-09-24 15:18:26.246,-0.0872548421223958,
1152,1152,4689,2021-09-24 15:18:26.250,-0.3992207845052083,
1153,1153,4693,2021-09-24 15:18:26.254,-0.1910940806070963,
1154,1154,4697,2021-09-24 15:18:26.258,-0.250708262125651,
1155,1155,4701,2021-09-24 15:18:26.262,-0.4122193654378255,
1156,1156,4705,2021-09-24 15:18:26.266,-0.0941276550292968,
1157,1157,4709,2021-09-24 15:18:26.270,-0.365753173828125,
1158,1158,4713,2021-09-24 15:18:26.274,-0.1252047220865885,
1159,1159,4717,2021-09-24 15:18:26.278,-0.1803366343180338,
1160,1160,4721,2021-09-24 15:18:26.282,-0.3309408823649089,
1161,1161,4725,2021-09-24 15:18:26.286,-0.014193852742513,
1162,1162,4729,2021-09-24 15:18:26.290,-0.3179423014322917,
1163,1163,4733,2021-09-24 15:18:26.294,-0.1107120513916015,
1164,1164,4737,2021-09-24 15:18:26.298,-0.1767508188883463,
1165,1165,4741,2021-09-24 15:18:26.302,-0.3573862711588542,
1166,1166,4745,2021-09-24 15:18:26.306,-0.0799338022867838,
1167,1167,4749,2021-09-24 15:18:26.310,-0.3794987996419271,
1168,1168,4753,2021-09-24 15:18:26.314,-0.1456737518310547,
1169,1169,4757,2021-09-24 15:18:26.318,-0.1897493998209635,
1170,1170,4761,2021-09-24 15:18:26.322,-0.358880360921224,
1171,1171,4765,2021-09-24 15:18:26.326,-0.056924819946289,
1172,1172,4769,2021-09-24 15:18:26.330,-0.3482723236083985,
1173,1173,4773,2021-09-24 15:18:26.334,-0.1156425476074218,
1174,1174,4777,2021-09-24 15:18:26.338,-0.1600170135498047,
1175,1175,4781,2021-09-24 15:18:26.342,-0.3402042388916016,
1176,1176,4785,2021-09-24 15:18:26.346,-0.0885995229085286,
1177,1177,4789,2021-09-24 15:18:26.350,-0.4057947794596355,
1178,1178,4793,2021-09-24 15:18:26.354,-0.164648691813151,
1179,1179,4797,2021-09-24 15:18:26.358,-0.1356633504231771,
1180,1180,4801,2021-09-24 15:18:26.362,-0.1884047190348307,
1181,1181,4805,2021-09-24 15:18:26.366,0.2302392323811849,
1182,1182,4809,2021-09-24 15:18:26.370,0.0987593332926432,
1183,1183,4813,2021-09-24 15:18:26.374,0.444939931233724,
1184,1184,4817,2021-09-24 15:18:26.378,0.4698912302652995,
1185,1185,4821,2021-09-24 15:18:26.382,0.2193323771158854,
1186,1186,4825,2021-09-24 15:18:26.386,0.2647527058919271,
1187,1187,4829,2021-09-24 15:18:26.390,-0.3953361511230469,
1188,1188,4833,2021-09-24 15:18:26.394,-0.660088857014974,
1189,1189,4837,2021-09-24 15:18:26.398,-1.1314741770426433,
1190,1190,4841,2021-09-24 15:18:26.402,-1.609881718953451,
1191,1191,4845,2021-09-24 15:18:26.406,-1.394732793172201,
1192,1192,4849,2021-09-24 15:18:26.410,-1.4668973286946616,
1193,1193,4853,2021-09-24 15:18:26.414,-0.8983961741129558,
1194,1194,4857,2021-09-24 15:18:26.418,-0.5220349629720052,
1195,1195,4861,2021-09-24 15:18:26.422,-0.3162988026936849,
1196,1196,4865,2021-09-24 15:18:26.426,0.2669938405354818,
1197,1197,4869,2021-09-24 15:18:26.430,0.1193777720133463,
1198,1198,4873,2021-09-24 15:18:26.434,0.366051991780599,
1199,1199,4877,2021-09-24 15:18:26.438,0.2908992767333985,
1200,1200,4881,2021-09-24 15:18:26.442,0.0614070892333984,
1201,1201,4885,2021-09-24 15:18:26.446,0.2986685434977214,
1202,1202,4889,2021-09-24 15:18:26.450,-0.0608094533284505,
1203,1203,4893,2021-09-24 15:18:26.454,0.106976826985677,
1204,1204,4897,2021-09-24 15:18:26.458,-0.0029881795247395,
1205,1205,4901,2021-09-24 15:18:26.462,-0.2259063720703125,
1206,1206,4905,2021-09-24 15:18:26.466,0.0152397155761718,
1207,1207,4909,2021-09-24 15:18:26.470,-0.315701166788737,
1208,1208,4913,2021-09-24 15:18:26.474,-0.10040283203125,
1209,1209,4917,2021-09-24 15:18:26.478,-0.1482137044270833,
1210,1210,4921,2021-09-24 15:18:26.482,-0.3212292989095052,
1211,1211,4925,2021-09-24 15:18:26.486,-0.0545342763264974,
1212,1212,4929,2021-09-24 15:18:26.490,-0.3853257497151693,
1213,1213,4933,2021-09-24 15:18:26.494,-0.1561323801676432,
1214,1214,4937,2021-09-24 15:18:26.498,-0.2012538909912109,
1215,1215,4941,2021-09-24 15:18:26.502,-0.3685919443766276,
1216,1216,4945,2021-09-24 15:18:26.506,-0.0802326202392578,
1217,1217,4949,2021-09-24 15:18:26.510,-0.394290288289388,
1218,1218,4953,2021-09-24 15:18:26.514,-0.186163584391276,
1219,1219,4957,2021-09-24 15:18:26.518,-0.2502600351969401,
1220,1220,4961,2021-09-24 15:18:26.522,-0.4111735026041667,
1221,1221,4965,2021-09-24 15:18:26.526,-0.1029427846272786,
1222,1222,4969,2021-09-24 15:18:26.530,-0.3887621561686198,
1223,1223,4973,2021-09-24 15:18:26.534,-0.1489607493082682,
1224,1224,4977,2021-09-24 15:18:26.538,-0.2002080281575521,
1225,1225,4981,2021-09-24 15:18:26.542,-0.3597768147786458,
1226,1226,4985,2021-09-24 15:18:26.546,-0.0599129994710286,
1227,1227,4989,2021-09-24 15:18:26.550,-0.3545475006103516,
1228,1228,4993,2021-09-24 15:18:26.554,-0.1269976298014323,
1229,1229,4997,2021-09-24 15:18:26.558,-0.1872094472249349,
1230,1230,5001,2021-09-24 15:18:26.562,-0.3679943084716797,
1231,1231,5005,2021-09-24 15:18:26.566,-0.0881512959798177,
1232,1232,5009,2021-09-24 15:18:26.570,-0.3835328420003255,
1233,1233,5013,2021-09-24 15:18:26.574,-0.1401456197102864,
1234,1234,5017,2021-09-24 15:18:26.578,-0.1961739857991536,
1235,1235,5021,2021-09-24 15:18:26.582,-0.3896586100260417,
1236,1236,5025,2021-09-24 15:18:26.586,-0.114596684773763,
1237,1237,5029,2021-09-24 15:18:26.590,-0.4048983256022136,
1238,1238,5033,2021-09-24 15:18:26.594,-0.1520983378092448,
1239,1239,5037,2021-09-24 15:18:26.598,-0.179440180460612,
1240,1240,5041,2021-09-24 15:18:26.602,-0.3313891092936198,
1241,1241,5045,2021-09-24 15:18:26.606,-0.0364557902018229,
1242,1242,5049,2021-09-24 15:18:26.610,-0.3500652313232422,
1243,1243,5053,2021-09-24 15:18:26.614,-0.1183319091796875,
1244,1244,5057,2021-09-24 15:18:26.618,-0.1532936096191406,
1245,1245,5061,2021-09-24 15:18:26.622,-0.3131612141927083,
1246,1246,5065,2021-09-24 15:18:26.626,-0.0267442067464192,
1247,1247,5069,2021-09-24 15:18:26.630,-0.3421465555826823,
1248,1248,5073,2021-09-24 15:18:26.634,-0.1053333282470703,
1249,1249,5077,2021-09-24 15:18:26.638,-0.1601664225260416,
1250,1250,5081,2021-09-24 15:18:26.642,-0.3384113311767578,
1251,1251,5085,2021-09-24 15:18:26.646,-0.0627517700195312,
1252,1252,5089,2021-09-24 15:18:26.650,-0.3780047098795573,
1253,1253,5093,2021-09-24 15:18:26.654,-0.1544888814290364,
1254,1254,5097,2021-09-24 15:18:26.658,-0.2061843872070312,
1255,1255,5101,2021-09-24 15:18:26.662,-0.3887621561686198,
1256,1256,5105,2021-09-24 15:18:26.666,-0.1108614603678385,
1257,1257,5109,2021-09-24 15:18:26.670,-0.4223791758219402,
1258,1258,5113,2021-09-24 15:18:26.674,-0.1872094472249349,
1259,1259,5117,2021-09-24 15:18:26.678,-0.2040926615397135,
1260,1260,5121,2021-09-24 15:18:26.682,-0.3581333160400391,
1261,1261,5125,2021-09-24 15:18:26.686,-0.0748538970947265,
1262,1262,5129,2021-09-24 15:18:26.690,-0.3933938344319662,
1263,1263,5133,2021-09-24 15:18:26.694,-0.1664415995279948,
1264,1264,5137,2021-09-24 15:18:26.698,-0.2028973897298177,
1265,1265,5141,2021-09-24 15:18:26.702,-0.3506628672281901,
1266,1266,5145,2021-09-24 15:18:26.706,-0.0454203287760416,
1267,1267,5149,2021-09-24 15:18:26.710,-0.3521569569905599,
1268,1268,5153,2021-09-24 15:18:26.714,-0.1114590962727864,
1269,1269,5157,2021-09-24 15:18:26.718,-0.1512018839518229,
1270,1270,5161,2021-09-24 15:18:26.722,-0.3418477376302083,
1271,1271,5165,2021-09-24 15:18:26.726,-0.042880376180013,
1272,1272,5169,2021-09-24 15:18:26.730,-0.337216059366862,
1273,1273,5173,2021-09-24 15:18:26.734,-0.0897947947184244,
1274,1274,5177,2021-09-24 15:18:26.738,-0.1380538940429687,
1275,1275,5181,2021-09-24 15:18:26.742,-0.3357219696044922,
1276,1276,5185,2021-09-24 15:18:26.746,-0.0543848673502604,
1277,1277,5189,2021-09-24 15:18:26.750,-0.3645579020182292,
1278,1278,5193,2021-09-24 15:18:26.754,-0.136410395304362,
1279,1279,5197,2021-09-24 15:18:26.758,-0.1991621653238932,
1280,1280,5201,2021-09-24 15:18:26.762,-0.3793493906656901,
1281,1281,5205,2021-09-24 15:18:26.766,-0.0721645355224609,
1282,1282,5209,2021-09-24 15:18:26.770,-0.3645579020182292,
1283,1283,5213,2021-09-24 15:18:26.774,-0.121917724609375,
1284,1284,5217,2021-09-24 15:18:26.778,-0.1740614573160807,
1285,1285,5221,2021-09-24 15:18:26.782,-0.372775395711263,
1286,1286,5225,2021-09-24 15:18:26.786,-0.078439712524414,
1287,1287,5229,2021-09-24 15:18:26.790,-0.3641096750895182,
1288,1288,5233,2021-09-24 15:18:26.794,-0.1178836822509765,
1289,1289,5237,2021-09-24 15:18:26.798,-0.1637522379557291,
1290,1290,5241,2021-09-24 15:18:26.802,-0.3560415903727214,
1291,1291,5245,2021-09-24 15:18:26.806,-0.0730609893798828,
1292,1292,5249,2021-09-24 15:18:26.810,-0.3826363881429037,
1293,1293,5253,2021-09-24 15:18:26.814,-0.1653957366943359,
1294,1294,5257,2021-09-24 15:18:26.818,-0.2091725667317708,
1295,1295,5261,2021-09-24 15:18:26.822,-0.3747177124023438,
1296,1296,5265,2021-09-24 15:18:26.826,-0.0866572062174479,
1297,1297,5269,2021-09-24 15:18:26.830,-0.3774070739746094,
1298,1298,5273,2021-09-24 15:18:26.834,-0.1398468017578125,
1299,1299,5277,2021-09-24 15:18:26.838,-0.1686827341715495,
1300,1300,5281,2021-09-24 15:18:26.842,-0.4799016316731771,
1301,1301,5285,2021-09-24 15:18:26.846,-0.0758997599283854,
1302,1302,5289,2021-09-24 15:18:26.850,-0.2236652374267578,
1303,1303,5293,2021-09-24 15:18:26.854,-0.1725673675537109,
1304,1304,5297,2021-09-24 15:18:26.858,-0.0455697377522786,
1305,1305,5301,2021-09-24 15:18:26.862,-0.3597768147786458,
1306,1306,5305,2021-09-24 15:18:26.866,-0.0312264760335286,
1307,1307,5309,2021-09-24 15:18:26.870,-0.2517541249593099,
1308,1308,5313,2021-09-24 15:18:26.874,-0.2320321400960286,
1309,1309,5317,2021-09-24 15:18:26.878,-0.1083215077718099,
1310,1310,5321,2021-09-24 15:18:26.882,-0.4283555348714193,
1311,1311,5325,2021-09-24 15:18:26.886,-0.1024945576985677,
1312,1312,5329,2021-09-24 15:18:26.890,-0.3188387552897135,
1313,1313,5333,2021-09-24 15:18:26.894,-0.2776018778483073,
1314,1314,5337,2021-09-24 15:18:26.898,-0.122067133585612,
1315,1315,5341,2021-09-24 15:18:26.902,-0.4171498616536458,
1316,1316,5345,2021-09-24 15:18:26.906,-0.0802326202392578,
1317,1317,5349,2021-09-24 15:18:26.910,-0.2876122792561849,
1318,1318,5353,2021-09-24 15:18:26.914,-0.243686040242513,
1319,1319,5357,2021-09-24 15:18:26.918,-0.0938288370768229,
1320,1320,5361,2021-09-24 15:18:26.922,-0.3823375701904297,
1321,1321,5365,2021-09-24 15:18:26.926,-0.0295829772949218,
1322,1322,5369,2021-09-24 15:18:26.930,-0.2375602722167969,
1323,1323,5373,2021-09-24 15:18:26.934,-0.2193323771158854,
1324,1324,5377,2021-09-24 15:18:26.938,-0.0987593332926432,
1325,1325,5381,2021-09-24 15:18:26.942,-0.4005654652913412,
1326,1326,5385,2021-09-24 15:18:26.946,-0.0494543711344401,
1327,1327,5389,2021-09-24 15:18:26.950,-0.2577304840087891,
1328,1328,5393,2021-09-24 15:18:26.954,-0.2453295389811198,
1329,1329,5397,2021-09-24 15:18:26.958,-0.1344680786132812,
1330,1330,5401,2021-09-24 15:18:26.962,-0.4562950134277344,
1331,1331,5405,2021-09-24 15:18:26.966,-0.1298364003499349,
1332,1332,5409,2021-09-24 15:18:26.970,-0.3212292989095052,
1333,1333,5413,2021-09-24 15:18:26.974,-0.2717749277750651,
1334,1334,5417,2021-09-24 15:18:26.978,-0.1284917195638021,
1335,1335,5421,2021-09-24 15:18:26.982,-0.4361248016357422,
1336,1336,5425,2021-09-24 15:18:26.986,-0.0847148895263672,
1337,1337,5429,2021-09-24 15:18:26.990,-0.272223154703776,
1338,1338,5433,2021-09-24 15:18:26.994,-0.2308368682861328,
1339,1339,5437,2021-09-24 15:18:26.998,-0.0938288370768229,
1340,1340,5441,2021-09-24 15:18:27.002,-0.3963820139567058,
1341,1341,5445,2021-09-24 15:18:27.006,-0.0563271840413411,
1342,1342,5449,2021-09-24 15:18:27.010,-0.2571328481038412,
1343,1343,5453,2021-09-24 15:18:27.014,-0.2209758758544922,
1344,1344,5457,2021-09-24 15:18:27.018,-0.0924841562906901,
1345,1345,5461,2021-09-24 15:18:27.022,-0.3895092010498047,
1346,1346,5465,2021-09-24 15:18:27.026,-0.035559336344401,
1347,1347,5469,2021-09-24 15:18:27.030,-0.2447319030761719,
1348,1348,5473,2021-09-24 15:18:27.034,-0.2326297760009766,
1349,1349,5477,2021-09-24 15:18:27.038,-0.1117579142252604,
1350,1350,5481,2021-09-24 15:18:27.042,-0.4352283477783203,
1351,1351,5485,2021-09-24 15:18:27.046,-0.0984605153401692,
1352,1352,5489,2021-09-24 15:18:27.050,-0.286566416422526,
1353,1353,5493,2021-09-24 15:18:27.054,-0.2468236287434896,
1354,1354,5497,2021-09-24 15:18:27.058,-0.0920359293619791,
1355,1355,5501,2021-09-24 15:18:27.062,-0.408932367960612,
1356,1356,5505,2021-09-24 15:18:27.066,-0.0847148895263672,
1357,1357,5509,2021-09-24 15:18:27.070,-0.2499612172444661,
1358,1358,5513,2021-09-24 15:18:27.074,-0.1153437296549479,
1359,1359,5517,2021-09-24 15:18:27.078,0.1658439636230469,
1360,1360,5521,2021-09-24 15:18:27.082,0.0128491719563802,
1361,1361,5525,2021-09-24 15:18:27.086,0.4689947764078777,
1362,1362,5529,2021-09-24 15:18:27.090,0.3433418273925782,
1363,1363,5533,2021-09-24 15:18:27.094,0.308380126953125,
1364,1364,5537,2021-09-24 15:18:27.098,0.2635574340820313,
1365,1365,5541,2021-09-24 15:18:27.102,-0.351111094156901,
1366,1366,5545,2021-09-24 15:18:27.106,-0.4839356740315755,
1367,1367,5549,2021-09-24 15:18:27.110,-1.112947463989258,
1368,1368,5553,2021-09-24 15:18:27.114,-1.4229710896809895,
1369,1369,5557,2021-09-24 15:18:27.118,-1.4095242818196616,
1370,1370,5561,2021-09-24 15:18:27.122,-1.557737986246745,
1371,1371,5565,2021-09-24 15:18:27.126,-0.9230486551920574,
1372,1372,5569,2021-09-24 15:18:27.130,-0.7050609588623048,
1373,1373,5573,2021-09-24 15:18:27.134,-0.293887456258138,
1374,1374,5577,2021-09-24 15:18:27.138,0.1943810780843099,
1375,1375,5581,2021-09-24 15:18:27.142,0.0900936126708984,
1376,1376,5585,2021-09-24 15:18:27.146,0.4651101430257162,
1377,1377,5589,2021-09-24 15:18:27.150,0.2412954966227213,
1378,1378,5593,2021-09-24 15:18:27.154,0.1943810780843099,
1379,1379,5597,2021-09-24 15:18:27.158,0.2432378133138021,
1380,1380,5601,2021-09-24 15:18:27.162,-0.1304340362548828,
1381,1381,5605,2021-09-24 15:18:27.166,0.1410420735677083,
1382,1382,5609,2021-09-24 15:18:27.170,-0.0953229268391927,
1383,1383,5613,2021-09-24 15:18:27.174,-0.0950241088867187,
1384,1384,5617,2021-09-24 15:18:27.178,0.0135962168375651,
1385,1385,5621,2021-09-24 15:18:27.182,-0.3142070770263672,
1386,1386,5625,2021-09-24 15:18:27.186,-0.0064245859781901,
1387,1387,5629,2021-09-24 15:18:27.190,-0.2396519978841146,
1388,1388,5633,2021-09-24 15:18:27.194,-0.2327791849772135,
1389,1389,5637,2021-09-24 15:18:27.198,-0.1298364003499349,
1390,1390,5641,2021-09-24 15:18:27.202,-0.4555479685465495,
1391,1391,5645,2021-09-24 15:18:27.206,-0.1138496398925781,
1392,1392,5649,2021-09-24 15:18:27.210,-0.2989673614501953,
1393,1393,5653,2021-09-24 15:18:27.214,-0.2601210276285807,
1394,1394,5657,2021-09-24 15:18:27.218,-0.1183319091796875,
1395,1395,5661,2021-09-24 15:18:27.222,-0.4141616821289063,
1396,1396,5665,2021-09-24 15:18:27.226,-0.0735092163085937,
1397,1397,5669,2021-09-24 15:18:27.230,-0.2913475036621094,
1398,1398,5673,2021-09-24 15:18:27.234,-0.287164052327474,
1399,1399,5677,2021-09-24 15:18:27.238,-0.1664415995279948,
1400,1400,5681,2021-09-24 15:18:27.242,-0.4598808288574219,
1401,1401,5685,2021-09-24 15:18:27.246,-0.0912888844807942,
1402,1402,5689,2021-09-24 15:18:27.250,-0.2771536509195964,
1403,1403,5693,2021-09-24 15:18:27.254,-0.2348709106445312,
1404,1404,5697,2021-09-24 15:18:27.258,-0.1063791910807291,
1405,1405,5701,2021-09-24 15:18:27.262,-0.4250685373942058,
1406,1406,5705,2021-09-24 15:18:27.266,-0.1042874654134114,
1407,1407,5709,2021-09-24 15:18:27.270,-0.315701166788737,
1408,1408,5713,2021-09-24 15:18:27.274,-0.2593739827473958,
1409,1409,5717,2021-09-24 15:18:27.278,-0.1047356923421224,
1410,1410,5721,2021-09-24 15:18:27.282,-0.4040018717447917,
1411,1411,5725,2021-09-24 15:18:27.286,-0.064544677734375,
1412,1412,5729,2021-09-24 15:18:27.290,-0.2779006958007813,
1413,1413,5733,2021-09-24 15:18:27.294,-0.2629597981770833,
1414,1414,5737,2021-09-24 15:18:27.298,-0.1402950286865234,
1415,1415,5741,2021-09-24 15:18:27.302,-0.4349295298258464,
1416,1416,5745,2021-09-24 15:18:27.306,-0.0880018870035807,
1417,1417,5749,2021-09-24 15:18:27.310,-0.287164052327474,
1418,1418,5753,2021-09-24 15:18:27.314,-0.2562363942464193,
1419,1419,5757,2021-09-24 15:18:27.318,-0.1160907745361328,
1420,1420,5761,2021-09-24 15:18:27.322,-0.3974278767903646,
1421,1421,5765,2021-09-24 15:18:27.326,-0.0419839223225911,
1422,1422,5769,2021-09-24 15:18:27.330,-0.2250099182128906,
1423,1423,5773,2021-09-24 15:18:27.334,-0.1872094472249349,
1424,1424,5777,2021-09-24 15:18:27.338,-0.0624529520670572,
1425,1425,5781,2021-09-24 15:18:27.342,-0.3762118021647135,
1426,1426,5785,2021-09-24 15:18:27.346,-0.0603612263997395,
1427,1427,5789,2021-09-24 15:18:27.350,-0.2698326110839844,
1428,1428,5793,2021-09-24 15:18:27.354,-0.2284463246663411,
1429,1429,5797,2021-09-24 15:18:27.358,-0.0869560241699218,
1430,1430,5801,2021-09-24 15:18:27.362,-0.3889115651448568,
1431,1431,5805,2021-09-24 15:18:27.366,-0.0694751739501953,
1432,1432,5809,2021-09-24 15:18:27.370,-0.2913475036621094,
1433,1433,5813,2021-09-24 15:18:27.374,-0.2783489227294922,
1434,1434,5817,2021-09-24 15:18:27.378,-0.1691309611002604,
1435,1435,5821,2021-09-24 15:18:27.382,-0.4715347290039063,
1436,1436,5825,2021-09-24 15:18:27.386,-0.1204236348470052,
1437,1437,5829,2021-09-24 15:18:27.390,-0.3035990397135417,
1438,1438,5833,2021-09-24 15:18:27.394,-0.2592245737711589,
1439,1439,5837,2021-09-24 15:18:27.398,-0.1334222157796224,
1440,1440,5841,2021-09-24 15:18:27.402,-0.4483763376871745,
1441,1441,5845,2021-09-24 15:18:27.406,-0.1098155975341797,
1442,1442,5849,2021-09-24 15:18:27.410,-0.2928415934244792,
1443,1443,5853,2021-09-24 15:18:27.414,-0.2362155914306641,
1444,1444,5857,2021-09-24 15:18:27.418,-0.0959205627441406,
1445,1445,5861,2021-09-24 15:18:27.422,-0.4023583730061849,
1446,1446,5865,2021-09-24 15:18:27.426,-0.0614070892333984,
1447,1447,5869,2021-09-24 15:18:27.430,-0.2593739827473958,
1448,1448,5873,2021-09-24 15:18:27.434,-0.2161947886149088,
1449,1449,5877,2021-09-24 15:18:27.438,-0.0729115804036458,
1450,1450,5881,2021-09-24 15:18:27.442,-0.3679943084716797,
1451,1451,5885,2021-09-24 15:18:27.446,-0.0274912516276041,
1452,1452,5889,2021-09-24 15:18:27.450,-0.2327791849772135,
1453,1453,5893,2021-09-24 15:18:27.454,-0.2040926615397135,
1454,1454,5897,2021-09-24 15:18:27.458,-0.0821749369303385,
1455,1455,5901,2021-09-24 15:18:27.462,-0.3911526997884115,
1456,1456,5905,2021-09-24 15:18:27.466,-0.0582695007324218,
1457,1457,5909,2021-09-24 15:18:27.470,-0.2587763468424479,
1458,1458,5913,2021-09-24 15:18:27.474,-0.2353191375732422,
1459,1459,5917,2021-09-24 15:18:27.478,-0.114447275797526,
1460,1460,5921,2021-09-24 15:18:27.482,-0.4190921783447266,
1461,1461,5925,2021-09-24 15:18:27.486,-0.0779914855957031,
1462,1462,5929,2021-09-24 15:18:27.490,-0.2710278828938802,
1463,1463,5933,2021-09-24 15:18:27.494,-0.2318827311197916,
1464,1464,5937,2021-09-24 15:18:27.498,-0.0992075602213541,
1465,1465,5941,2021-09-24 15:18:27.502,-0.4077370961507162,
1466,1466,5945,2021-09-24 15:18:27.506,-0.0751527150472005,
1467,1467,5949,2021-09-24 15:18:27.510,-0.2698326110839844,
1468,1468,5953,2021-09-24 15:18:27.514,-0.2327791849772135,
1469,1469,5957,2021-09-24 15:18:27.518,-0.0844160715738932,
1470,1470,5961,2021-09-24 15:18:27.522,-0.3723271687825521,
1471,1471,5965,2021-09-24 15:18:27.526,-0.0507990519205729,
1472,1472,5969,2021-09-24 15:18:27.530,-0.265649159749349,
1473,1473,5973,2021-09-24 15:18:27.534,-0.2262051900227865,
1474,1474,5977,2021-09-24 15:18:27.538,-0.0903924306233724,
1475,1475,5981,2021-09-24 15:18:27.542,-0.401910146077474,
1476,1476,5985,2021-09-24 15:18:27.546,-0.0883007049560547,
1477,1477,5989,2021-09-24 15:18:27.550,-0.3025531768798828,
1478,1478,5993,2021-09-24 15:18:27.554,-0.2843252817789714,
1479,1479,5997,2021-09-24 15:18:27.558,-0.1698780059814453,
1480,1480,6001,2021-09-24 15:18:27.562,-0.4624207814534505,
1481,1481,6005,2021-09-24 15:18:27.566,-0.1089191436767578,
1482,1482,6009,2021-09-24 15:18:27.570,-0.265649159749349,
1483,1483,6013,2021-09-24 15:18:27.574,-0.1994609832763672,
1484,1484,6017,2021-09-24 15:18:27.578,-0.0663375854492187,
1485,1485,6021,2021-09-24 15:18:27.582,-0.380096435546875,
1486,1486,6025,2021-09-24 15:18:27.586,-0.0814278920491536,
1487,1487,6029,2021-09-24 15:18:27.590,-0.2929910024007162,
1488,1488,6033,2021-09-24 15:18:27.594,-0.2634080251057943,
1489,1489,6037,2021-09-24 15:18:27.598,-0.1368586222330729,
1490,1490,6041,2021-09-24 15:18:27.602,-0.4294013977050782,
1491,1491,6045,2021-09-24 15:18:27.606,-0.10040283203125,
1492,1492,6049,2021-09-24 15:18:27.610,-0.2737172444661458,
1493,1493,6053,2021-09-24 15:18:27.614,-0.2057361602783203,
1494,1494,6057,2021-09-24 15:18:27.618,-0.0552813212076822,
1495,1495,6061,2021-09-24 15:18:27.622,-0.3449853261311849,
1496,1496,6065,2021-09-24 15:18:27.626,-0.0340652465820312,
1497,1497,6069,2021-09-24 15:18:27.630,-0.2409966786702474,
1498,1498,6073,2021-09-24 15:18:27.634,-0.2042420705159505,
1499,1499,6077,2021-09-24 15:18:27.638,-0.0688775380452474,
1500,1500,6081,2021-09-24 15:18:27.642,-0.3561909993489583,
1501,1501,6085,2021-09-24 15:18:27.646,-0.0270430246988932,
1502,1502,6089,2021-09-24 15:18:27.650,-0.2345720926920573,
1503,1503,6093,2021-09-24 15:18:27.654,-0.215447743733724,
1504,1504,6097,2021-09-24 15:18:27.658,-0.0903924306233724,
1505,1505,6101,2021-09-24 15:18:27.662,-0.3715801239013672,
1506,1506,6105,2021-09-24 15:18:27.666,-0.0522931416829427,
1507,1507,6109,2021-09-24 15:18:27.670,-0.2553399403889974,
1508,1508,6113,2021-09-24 15:18:27.674,-0.2429389953613281,
1509,1509,6117,2021-09-24 15:18:27.678,-0.1464207967122396,
1510,1510,6121,2021-09-24 15:18:27.682,-0.4476292928059896,
1511,1511,6125,2021-09-24 15:18:27.686,-0.1441796620686849,
1512,1512,6129,2021-09-24 15:18:27.690,-0.3487205505371094,
1513,1513,6133,2021-09-24 15:18:27.694,-0.3186893463134766,
1514,1514,6137,2021-09-24 15:18:27.698,-0.1955763498942057,
1515,1515,6141,2021-09-24 15:18:27.702,-0.4840850830078125,
1516,1516,6145,2021-09-24 15:18:27.706,-0.1668898264567057,
1517,1517,6149,2021-09-24 15:18:27.710,-0.3424453735351563,
1518,1518,6153,2021-09-24 15:18:27.714,-0.287014643351237,
1519,1519,6157,2021-09-24 15:18:27.718,-0.1453749338785807,
1520,1520,6161,2021-09-24 15:18:27.722,-0.4156557718912761,
1521,1521,6165,2021-09-24 15:18:27.726,-0.0793361663818359,
1522,1522,6169,2021-09-24 15:18:27.730,-0.2333768208821615,
1523,1523,6173,2021-09-24 15:18:27.734,-0.1806354522705078,
1524,1524,6177,2021-09-24 15:18:27.738,-0.07171630859375,
1525,1525,6181,2021-09-24 15:18:27.742,-0.387865702311198,
1526,1526,6185,2021-09-24 15:18:27.746,-0.0951735178629557,
1527,1527,6189,2021-09-24 15:18:27.750,-0.2965768178304037,
1528,1528,6193,2021-09-24 15:18:27.754,-0.2774524688720703,
1529,1529,6197,2021-09-24 15:18:27.758,-0.1470184326171875,
1530,1530,6201,2021-09-24 15:18:27.762,-0.3653049468994141,
1531,1531,6205,2021-09-24 15:18:27.766,0.0753021240234375,
1532,1532,6209,2021-09-24 15:18:27.770,0.0682799021402994,
1533,1533,6213,2021-09-24 15:18:27.774,0.2807394663492839,
1534,1534,6217,2021-09-24 15:18:27.778,0.5265172322591146,
1535,1535,6221,2021-09-24 15:18:27.782,0.2864170074462891,
1536,1536,6225,2021-09-24 15:18:27.786,0.4921531677246094,
1537,1537,6229,2021-09-24 15:18:27.790,0.1119073232014974,
1538,1538,6233,2021-09-24 15:18:27.794,-0.2069314320882161,
1539,1539,6237,2021-09-24 15:18:27.798,-0.5720869700113933,
1540,1540,6241,2021-09-24 15:18:27.802,-1.3258552551269531,
1541,1541,6245,2021-09-24 15:18:27.806,-1.4026514689127605,
1542,1542,6249,2021-09-24 15:18:27.810,-1.6635195414225263,
1543,1543,6253,2021-09-24 15:18:27.814,-1.4674949645996096,
1544,1544,6257,2021-09-24 15:18:27.818,-0.9881909688313804,
1545,1545,6261,2021-09-24 15:18:27.822,-0.8217493693033855,
1546,1546,6265,2021-09-24 15:18:27.826,-0.0893465677897135,
1547,1547,6269,2021-09-24 15:18:27.830,0.0766468048095703,
1548,1548,6273,2021-09-24 15:18:27.834,0.2784983317057292,
1549,1549,6277,2021-09-24 15:18:27.838,0.4425493876139323,
1550,1550,6281,2021-09-24 15:18:27.842,0.0796349843343099,
1551,1551,6285,2021-09-24 15:18:27.846,0.2662467956542969,
1552,1552,6289,2021-09-24 15:18:27.850,0.1990127563476562,
1553,1553,6293,2021-09-24 15:18:27.854,0.0061257680257161,
1554,1554,6297,2021-09-24 15:18:27.858,0.2093219757080078,
1555,1555,6301,2021-09-24 15:18:27.862,-0.1298364003499349,
1556,1556,6305,2021-09-24 15:18:27.866,0.0186761220296223,
1557,1557,6309,2021-09-24 15:18:27.870,-0.0823243459065755,
1558,1558,6313,2021-09-24 15:18:27.874,-0.2717749277750651,
1559,1559,6317,2021-09-24 15:18:27.878,-0.0482590993245442,
1560,1560,6321,2021-09-24 15:18:27.882,-0.3437900543212891,
1561,1561,6325,2021-09-24 15:18:27.886,-0.11474609375,
1562,1562,6329,2021-09-24 15:18:27.890,-0.1383527119954427,
1563,1563,6333,2021-09-24 15:18:27.894,-0.3050931294759115,
1564,1564,6337,2021-09-24 15:18:27.898,-0.0779914855957031,
1565,1565,6341,2021-09-24 15:18:27.902,-0.3678448994954427,
1566,1566,6345,2021-09-24 15:18:27.906,-0.1636028289794922,
1567,1567,6349,2021-09-24 15:18:27.910,-0.2209758758544922,
1568,1568,6353,2021-09-24 15:18:27.914,-0.3842798868815105,
1569,1569,6357,2021-09-24 15:18:27.918,-0.1241588592529297,
1570,1570,6361,2021-09-24 15:18:27.922,-0.4063924153645833,
1571,1571,6365,2021-09-24 15:18:27.926,-0.1849683125813802,
1572,1572,6369,2021-09-24 15:18:27.930,-0.2230676015218099,
1573,1573,6373,2021-09-24 15:18:27.934,-0.3791999816894532,
1574,1574,6377,2021-09-24 15:18:27.938,-0.122067133585612,
1575,1575,6381,2021-09-24 15:18:27.942,-0.4060935974121094,
1576,1576,6385,2021-09-24 15:18:27.946,-0.1918411254882812,
1577,1577,6389,2021-09-24 15:18:27.950,-0.2318827311197916,
1578,1578,6393,2021-09-24 15:18:27.954,-0.3703848520914714,
1579,1579,6397,2021-09-24 15:18:27.958,-0.0869560241699218,
1580,1580,6401,2021-09-24 15:18:27.962,-0.3343772888183594,
1581,1581,6405,2021-09-24 15:18:27.966,-0.1032416025797526,
1582,1582,6409,2021-09-24 15:18:27.970,-0.1583735148111979,
1583,1583,6413,2021-09-24 15:18:27.974,-0.3330326080322266,
1584,1584,6417,2021-09-24 15:18:27.978,-0.0963687896728515,
1585,1585,6421,2021-09-24 15:18:27.982,-0.4041512807210287,
1586,1586,6425,2021-09-24 15:18:27.986,-0.208126703898112,
1587,1587,6429,2021-09-24 15:18:27.990,-0.2504094441731771,
1588,1588,6433,2021-09-24 15:18:27.994,-0.3818893432617188,
1589,1589,6437,2021-09-24 15:18:27.998,-0.1018969217936198,
1590,1590,6441,2021-09-24 15:18:28.002,-0.365454355875651,
1591,1591,6445,2021-09-24 15:18:28.006,-0.1371574401855469,
1592,1592,6449,2021-09-24 15:18:28.010,-0.1728661855061849,
1593,1593,6453,2021-09-24 15:18:28.014,-0.3128623962402344,
1594,1594,6457,2021-09-24 15:18:28.018,-0.0507990519205729,
1595,1595,6461,2021-09-24 15:18:28.022,-0.3286997477213542,
1596,1596,6465,2021-09-24 15:18:28.026,-0.1057815551757812,
1597,1597,6469,2021-09-24 15:18:28.030,-0.1328245798746745,
1598,1598,6473,2021-09-24 15:18:28.034,-0.2764066060384115,
1599,1599,6477,2021-09-24 15:18:28.038,-0.0319735209147135,
1600,1600,6481,2021-09-24 15:18:28.042,-0.337514877319336,
1601,1601,6485,2021-09-24 15:18:28.046,-0.1380538940429687,
1602,1602,6489,2021-09-24 15:18:28.050,-0.193634033203125,
1603,1603,6493,2021-09-24 15:18:28.054,-0.2314345041910807,
1604,1604,6497,2021-09-24 15:18:28.058,0.2505588531494141,
1605,1605,6501,2021-09-24 15:18:28.062,0.0591659545898437,
1606,1606,6505,2021-09-24 15:18:28.066,0.1534430185953776,
1607,1607,6509,2021-09-24 15:18:28.070,-0.0900936126708984,
1608,1608,6513,2021-09-24 15:18:28.074,-0.4241720835367839,
1609,1609,6517,2021-09-24 15:18:28.078,-0.3097248077392578,
1610,1610,6521,2021-09-24 15:18:28.082,-0.6339422861735027,
1611,1611,6525,2021-09-24 15:18:28.086,-0.4192415873209636,
1612,1612,6529,2021-09-24 15:18:28.090,-0.422976811726888,
1613,1613,6533,2021-09-24 15:18:28.094,-0.524425506591797,
1614,1614,6537,2021-09-24 15:18:28.098,-0.2339744567871094,
1615,1615,6541,2021-09-24 15:18:28.102,-0.4767640431722005,
1616,1616,6545,2021-09-24 15:18:28.106,-0.251305898030599,
1617,1617,6549,2021-09-24 15:18:28.110,-0.2858193715413412,
1618,1618,6553,2021-09-24 15:18:28.114,-0.4190921783447266,
1619,1619,6557,2021-09-24 15:18:28.118,-0.128939946492513,
1620,1620,6561,2021-09-24 15:18:28.122,-0.3605238596598307,
1621,1621,6565,2021-09-24 15:18:28.126,-0.1210212707519531,
1622,1622,6569,2021-09-24 15:18:28.130,-0.1522477467854817,
1623,1623,6573,2021-09-24 15:18:28.134,-0.301656723022461,
1624,1624,6577,2021-09-24 15:18:28.138,-0.049753189086914,
1625,1625,6581,2021-09-24 15:18:28.142,-0.3194363911946615,
1626,1626,6585,2021-09-24 15:18:28.146,-0.1089191436767578,
1627,1627,6589,2021-09-24 15:18:28.150,-0.1673380533854166,
1628,1628,6593,2021-09-24 15:18:28.154,-0.3260103861490885,
1629,1629,6597,2021-09-24 15:18:28.158,-0.0649929046630859,
1630,1630,6601,2021-09-24 15:18:28.162,-0.3058401743570964,
1631,1631,6605,2021-09-24 15:18:28.166,-0.0697739919026692,
1632,1632,6609,2021-09-24 15:18:28.170,-0.1166884104410807,
1633,1633,6613,2021-09-24 15:18:28.174,-0.2910486857096354,
1634,1634,6617,2021-09-24 15:18:28.178,-0.0599129994710286,
1635,1635,6621,2021-09-24 15:18:28.182,-0.3454335530598958,
1636,1636,6625,2021-09-24 15:18:28.186,-0.1274458567301432,
1637,1637,6629,2021-09-24 15:18:28.190,-0.1636028289794922,
1638,1638,6633,2021-09-24 15:18:28.194,-0.3258609771728516,
1639,1639,6637,2021-09-24 15:18:28.198,-0.0808302561442057,
1640,1640,6641,2021-09-24 15:18:28.202,-0.3623167673746745,
1641,1641,6645,2021-09-24 15:18:28.206,-0.1591205596923828,
1642,1642,6649,2021-09-24 15:18:28.210,-0.2126089731852213,
1643,1643,6653,2021-09-24 15:18:28.214,-0.3536510467529297,
1644,1644,6657,2021-09-24 15:18:28.218,-0.0751527150472005,
1645,1645,6661,2021-09-24 15:18:28.222,-0.330044428507487,
1646,1646,6665,2021-09-24 15:18:28.226,-0.1045862833658854,
1647,1647,6669,2021-09-24 15:18:28.230,-0.1588217417399088,
1648,1648,6673,2021-09-24 15:18:28.234,-0.3275044759114583,
1649,1649,6677,2021-09-24 15:18:28.238,-0.0808302561442057,
1650,1650,6681,2021-09-24 15:18:28.242,-0.3554439544677735,
1651,1651,6685,2021-09-24 15:18:28.246,-0.1419385274251302,
1652,1652,6689,2021-09-24 15:18:28.250,-0.1972198486328125,
1653,1653,6693,2021-09-24 15:18:28.254,-0.3500652313232422,
1654,1654,6697,2021-09-24 15:18:28.258,-0.0865077972412109,
1655,1655,6701,2021-09-24 15:18:28.262,-0.3530534108479818,
1656,1656,6705,2021-09-24 15:18:28.266,-0.1353645324707031,
1657,1657,6709,2021-09-24 15:18:28.270,-0.1769002278645833,
1658,1658,6713,2021-09-24 15:18:28.274,-0.3207810719807943,
1659,1659,6717,2021-09-24 15:18:28.278,-0.071268081665039,
1660,1660,6721,2021-09-24 15:18:28.282,-0.3581333160400391,
1661,1661,6725,2021-09-24 15:18:28.286,-0.1425361633300781,
1662,1662,6729,2021-09-24 15:18:28.290,-0.18646240234375,
1663,1663,6733,2021-09-24 15:18:28.294,-0.3355725606282552,
1664,1664,6737,2021-09-24 15:18:28.298,-0.0750033060709635,
1665,1665,6741,2021-09-24 15:18:28.302,-0.3304926554361979,
1666,1666,6745,2021-09-24 15:18:28.306,-0.107723871866862,
1667,1667,6749,2021-09-24 15:18:28.310,-0.1644992828369141,
1668,1668,6753,2021-09-24 15:18:28.314,-0.3281021118164063,
1669,1669,6757,2021-09-24 15:18:28.318,-0.0778420766194661,
1670,1670,6761,2021-09-24 15:18:28.322,-0.3540992736816407,
1671,1671,6765,2021-09-24 15:18:28.326,-0.1604652404785156,
1672,1672,6769,2021-09-24 15:18:28.330,-0.2268028259277344,
1673,1673,6773,2021-09-24 15:18:28.334,-0.3854751586914063,
1674,1674,6777,2021-09-24 15:18:28.338,-0.136410395304362,
1675,1675,6781,2021-09-24 15:18:28.342,-0.3993701934814453,
1676,1676,6785,2021-09-24 15:18:28.346,-0.1782449086507161,
1677,1677,6789,2021-09-24 15:18:28.350,-0.2176888783772786,
1678,1678,6793,2021-09-24 15:18:28.354,-0.351111094156901,
1679,1679,6797,2021-09-24 15:18:28.358,-0.0966676076253255,
1680,1680,6801,2021-09-24 15:18:28.362,-0.3647073109944662,
1681,1681,6805,2021-09-24 15:18:28.366,-0.1516501108805338,
1682,1682,6809,2021-09-24 15:18:28.370,-0.1887035369873047,
1683,1683,6813,2021-09-24 15:18:28.374,-0.323171615600586,
1684,1684,6817,2021-09-24 15:18:28.378,-0.0654411315917968,
1685,1685,6821,2021-09-24 15:18:28.382,-0.3307914733886719,
1686,1686,6825,2021-09-24 15:18:28.386,-0.1059309641520182,
1687,1687,6829,2021-09-24 15:18:28.390,-0.1331233978271484,
1688,1688,6833,2021-09-24 15:18:28.394,-0.2843252817789714,
1689,1689,6837,2021-09-24 15:18:28.398,-0.0566260019938151,
1690,1690,6841,2021-09-24 15:18:28.402,-0.3596274058024089,
1691,1691,6845,2021-09-24 15:18:28.406,-0.1642004648844401,
1692,1692,6849,2021-09-24 15:18:28.410,-0.2075290679931641,
1693,1693,6853,2021-09-24 15:18:28.414,-0.3412501017252604,
1694,1694,6857,2021-09-24 15:18:28.418,-0.0781408945719401,
1695,1695,6861,2021-09-24 15:18:28.422,-0.3561909993489583,
1696,1696,6865,2021-09-24 15:18:28.426,-0.1534430185953776,
1697,1697,6869,2021-09-24 15:18:28.430,-0.2090231577555338,
1698,1698,6873,2021-09-24 15:18:28.434,-0.358730951944987,
1699,1699,6877,2021-09-24 15:18:28.438,-0.107425053914388,
1700,1700,6881,2021-09-24 15:18:28.442,-0.358730951944987,
1701,1701,6885,2021-09-24 15:18:28.446,-0.0718657175699869,
1702,1702,6889,2021-09-24 15:18:28.450,0.013895034790039,
1703,1703,6893,2021-09-24 15:18:28.454,0.0240548451741536,
1704,1704,6897,2021-09-24 15:18:28.458,0.4383659362792969,
1705,1705,6901,2021-09-24 15:18:28.462,0.3097248077392578,
1706,1706,6905,2021-09-24 15:18:28.466,0.5184491475423177,
1707,1707,6909,2021-09-24 15:18:28.470,0.359029769897461,
1708,1708,6913,2021-09-24 15:18:28.474,-0.0561777750651041,
1709,1709,6917,2021-09-24 15:18:28.478,-0.2362155914306641,
1710,1710,6921,2021-09-24 15:18:28.482,-1.004924774169922,
1711,1711,6925,2021-09-24 15:18:28.486,-1.2985134124755862,
1712,1712,6929,2021-09-24 15:18:28.490,-1.6022618611653647,
1713,1713,6933,2021-09-24 15:18:28.494,-1.759888331095378,
1714,1714,6937,2021-09-24 15:18:28.498,-1.271171569824219,
1715,1715,6941,2021-09-24 15:18:28.502,-1.106522878011068,
1716,1716,6945,2021-09-24 15:18:28.506,-0.437917709350586,
1717,1717,6949,2021-09-24 15:18:28.510,0.0113550821940104,
1718,1718,6953,2021-09-24 15:18:28.514,0.1972198486328125,
1719,1719,6957,2021-09-24 15:18:28.518,0.5822467803955079,
1720,1720,6961,2021-09-24 15:18:28.522,0.3103224436442057,
1721,1721,6965,2021-09-24 15:18:28.526,0.4222297668457032,
1722,1722,6969,2021-09-24 15:18:28.530,0.2680397033691407,
1723,1723,6973,2021-09-24 15:18:28.534,0.0274912516276041,
1724,1724,6977,2021-09-24 15:18:28.538,0.1994609832763672,
1725,1725,6981,2021-09-24 15:18:28.542,-0.1281929016113281,
1726,1726,6985,2021-09-24 15:18:28.546,0.0251007080078125,
1727,1727,6989,2021-09-24 15:18:28.550,-0.0702222188313802,
1728,1728,6993,2021-09-24 15:18:28.554,-0.2640056610107422,
1729,1729,6997,2021-09-24 15:18:28.558,-0.0524425506591796,
1730,1730,7001,2021-09-24 15:18:28.562,-0.337514877319336,
1731,1731,7005,2021-09-24 15:18:28.566,-0.12908935546875,
1732,1732,7009,2021-09-24 15:18:28.570,-0.1872094472249349,
1733,1733,7013,2021-09-24 15:18:28.574,-0.3569380442301432,
1734,1734,7017,2021-09-24 15:18:28.578,-0.1262505849202474,
1735,1735,7021,2021-09-24 15:18:28.582,-0.4060935974121094,
1736,1736,7025,2021-09-24 15:18:28.586,-0.1991621653238932,
1737,1737,7029,2021-09-24 15:18:28.590,-0.2412954966227213,
1738,1738,7033,2021-09-24 15:18:28.594,-0.3910032908121745,
1739,1739,7037,2021-09-24 15:18:28.598,-0.1468690236409505,
1740,1740,7041,2021-09-24 15:18:28.602,-0.4184945424397787,
1741,1741,7045,2021-09-24 15:18:28.606,-0.1858647664388021,
1742,1742,7049,2021-09-24 15:18:28.610,-0.1976680755615234,
1743,1743,7053,2021-09-24 15:18:28.614,-0.3234704335530599,
1744,1744,7057,2021-09-24 15:18:28.618,-0.0769456227620442,
1745,1745,7061,2021-09-24 15:18:28.622,-0.3576850891113282,
1746,1746,7065,2021-09-24 15:18:28.626,-0.1411914825439453,
1747,1747,7069,2021-09-24 15:18:28.630,-0.1813824971516927,
1748,1748,7073,2021-09-24 15:18:28.634,-0.330193837483724,
1749,1749,7077,2021-09-24 15:18:28.638,-0.0897947947184244,
1750,1750,7081,2021-09-24 15:18:28.642,-0.3851763407389323,
1751,1751,7085,2021-09-24 15:18:28.646,-0.1966222127278646,
1752,1752,7089,2021-09-24 15:18:28.650,-0.2335262298583984,
1753,1753,7093,2021-09-24 15:18:28.654,-0.3641096750895182,
1754,1754,7097,2021-09-24 15:18:28.658,-0.0977134704589843,
1755,1755,7101,2021-09-24 15:18:28.662,-0.3523063659667969,
1756,1756,7105,2021-09-24 15:18:28.666,-0.1337210337320963,
1757,1757,7109,2021-09-24 15:18:28.670,-0.1734638214111328,
1758,1758,7113,2021-09-24 15:18:28.674,-0.3292973836263021,
1759,1759,7117,2021-09-24 15:18:28.678,-0.0972652435302734,
1760,1760,7121,2021-09-24 15:18:28.682,-0.3591791788736979,
1761,1761,7125,2021-09-24 15:18:28.686,-0.1371574401855469,
1762,1762,7129,2021-09-24 15:18:28.690,-0.1701768239339192,
1763,1763,7133,2021-09-24 15:18:28.694,-0.3164482116699219,
1764,1764,7137,2021-09-24 15:18:28.698,-0.0630505879720052,
1765,1765,7141,2021-09-24 15:18:28.702,-0.3322855631510417,
1766,1766,7145,2021-09-24 15:18:28.706,-0.11474609375,
1767,1767,7149,2021-09-24 15:18:28.710,-0.1543394724527995,
1768,1768,7153,2021-09-24 15:18:28.714,-0.2916463216145833,
1769,1769,7157,2021-09-24 15:18:28.718,-0.0219631195068359,
1770,1770,7161,2021-09-24 15:18:28.722,-0.3142070770263672,
1771,1771,7165,2021-09-24 15:18:28.726,-0.2194817860921224,
1772,1772,7169,2021-09-24 15:18:28.730,-0.3600756327311198,
1773,1773,7173,2021-09-24 15:18:28.734,-0.5153115590413412,
1774,1774,7177,2021-09-24 15:18:28.738,-0.2093219757080078,
1775,1775,7181,2021-09-24 15:18:28.742,-0.408932367960612,
1776,1776,7185,2021-09-24 15:18:28.746,-0.143582026163737,
1777,1777,7189,2021-09-24 15:18:28.750,-0.1816813151041666,
1778,1778,7193,2021-09-24 15:18:28.754,-0.3546969095865885,
1779,1779,7197,2021-09-24 15:18:28.758,-0.1477654774983724,
1780,1780,7201,2021-09-24 15:18:28.762,-0.4568926493326823,
1781,1781,7205,2021-09-24 15:18:28.766,-0.2486165364583333,
1782,1782,7209,2021-09-24 15:18:28.770,-0.2312850952148437,
1783,1783,7213,2021-09-24 15:18:28.774,-0.3182411193847657,
1784,1784,7217,2021-09-24 15:18:28.778,-0.0195725758870442,
1785,1785,7221,2021-09-24 15:18:28.782,-0.2749125162760417,
1786,1786,7225,2021-09-24 15:18:28.786,-0.064544677734375,
1787,1787,7229,2021-09-24 15:18:28.790,-0.0909900665283203,
1788,1788,7233,2021-09-24 15:18:28.794,-0.2359167734781901,
1789,1789,7237,2021-09-24 15:18:28.798,0.0135962168375651,
1790,1790,7241,2021-09-24 15:18:28.802,-0.2759583791097005,
1791,1791,7245,2021-09-24 15:18:28.806,-0.0763479868570963,
1792,1792,7249,2021-09-24 15:18:28.810,-0.1305834452311198,
1793,1793,7253,2021-09-24 15:18:28.814,-0.3037484486897787,
1794,1794,7257,2021-09-24 15:18:28.818,-0.0612576802571614,
1795,1795,7261,2021-09-24 15:18:28.822,-0.3318373362223307,
1796,1796,7265,2021-09-24 15:18:28.826,-0.1211706797281901,
1797,1797,7269,2021-09-24 15:18:28.830,-0.1724179585774739,
1798,1798,7273,2021-09-24 15:18:28.834,-0.3364690144856771,
1799,1799,7277,2021-09-24 15:18:28.838,-0.0908406575520833,
1800,1800,7281,2021-09-24 15:18:28.842,-0.380395253499349,
1801,1801,7285,2021-09-24 15:18:28.846,-0.2971744537353516,
1802,1802,7289,2021-09-24 15:18:28.850,-0.1190789540608724,
1803,1803,7293,2021-09-24 15:18:28.854,-0.3691895802815755,
1804,1804,7297,2021-09-24 15:18:28.858,-0.085461934407552,
1805,1805,7301,2021-09-24 15:18:28.862,-0.3165976206461589,
1806,1806,7305,2021-09-24 15:18:28.866,-0.3119659423828125,
1807,1807,7309,2021-09-24 15:18:28.870,-0.1988633473714193,
1808,1808,7313,2021-09-24 15:18:28.874,-0.4550997416178386,
1809,1809,7317,2021-09-24 15:18:28.878,-0.1243082682291666,
1810,1810,7321,2021-09-24 15:18:28.882,-0.2705796559651693,
1811,1811,7325,2021-09-24 15:18:28.886,-0.2160453796386719,
1812,1812,7329,2021-09-24 15:18:28.890,-0.0900936126708984,
1813,1813,7333,2021-09-24 15:18:28.894,-0.3691895802815755,
1814,1814,7337,2021-09-24 15:18:28.898,-0.0754515329996744,
1815,1815,7341,2021-09-24 15:18:28.902,-0.2628103892008464,
1816,1816,7345,2021-09-24 15:18:28.906,-0.2166430155436198,
1817,1817,7349,2021-09-24 15:18:28.910,-0.0779914855957031,
1818,1818,7353,2021-09-24 15:18:28.914,-0.3381125132242839,
1819,1819,7357,2021-09-24 15:18:28.918,-0.0268936157226562,
1820,1820,7361,2021-09-24 15:18:28.922,-0.2257569630940755,
1821,1821,7365,2021-09-24 15:18:28.926,-0.1963233947753906,
1822,1822,7369,2021-09-24 15:18:28.930,-0.0776926676432291,
1823,1823,7373,2021-09-24 15:18:28.934,-0.3617191314697266,
1824,1824,7377,2021-09-24 15:18:28.938,-0.0537872314453125,
1825,1825,7381,2021-09-24 15:18:28.942,-0.2554893493652344,
1826,1826,7385,2021-09-24 15:18:28.946,-0.2377096811930338,
1827,1827,7389,2021-09-24 15:18:28.950,-0.136111577351888,
1828,1828,7393,2021-09-24 15:18:28.954,-0.4205862681070964,
1829,1829,7397,2021-09-24 15:18:28.958,-0.0880018870035807,
1830,1830,7401,2021-09-24 15:18:28.962,-0.2519035339355469,
1831,1831,7405,2021-09-24 15:18:28.966,-0.2093219757080078,
1832,1832,7409,2021-09-24 15:18:28.970,-0.1181825002034505,
1833,1833,7413,2021-09-24 15:18:28.974,-0.4364236195882162,
1834,1834,7417,2021-09-24 15:18:28.978,-0.1390997568766276,
1835,1835,7421,2021-09-24 15:18:28.982,-0.3260103861490885,
1836,1836,7425,2021-09-24 15:18:28.986,-0.2625115712483724,
1837,1837,7429,2021-09-24 15:18:28.990,-0.1202742258707682,
1838,1838,7433,2021-09-24 15:18:28.994,-0.409380594889323,
1839,1839,7437,2021-09-24 15:18:28.998,-0.1027933756510416,
1840,1840,7441,2021-09-24 15:18:29.002,-0.2955309549967448,
1841,1841,7445,2021-09-24 15:18:29.006,-0.2897040049235026,
1842,1842,7449,2021-09-24 15:18:29.010,-0.1945304870605469,
1843,1843,7453,2021-09-24 15:18:29.014,-0.4837862650553386,
1844,1844,7457,2021-09-24 15:18:29.018,-0.1604652404785156,
1845,1845,7461,2021-09-24 15:18:29.022,-0.3430430094401042,
1846,1846,7465,2021-09-24 15:18:29.026,-0.2907498677571615,
1847,1847,7469,2021-09-24 15:18:29.030,-0.1383527119954427,
1848,1848,7473,2021-09-24 15:18:29.034,-0.4038524627685547,
1849,1849,7477,2021-09-24 15:18:29.038,-0.0657399495442708,
1850,1850,7481,2021-09-24 15:18:29.042,-0.2496623992919922,
1851,1851,7485,2021-09-24 15:18:29.046,-0.2160453796386719,
1852,1852,7489,2021-09-24 15:18:29.050,-0.0883007049560547,
1853,1853,7493,2021-09-24 15:18:29.054,-0.372625986735026,
1854,1854,7497,2021-09-24 15:18:29.058,-0.056924819946289,
1855,1855,7501,2021-09-24 15:18:29.062,-0.2554893493652344,
1856,1856,7505,2021-09-24 15:18:29.066,-0.2179876963297526,
1857,1857,7509,2021-09-24 15:18:29.070,-0.0814278920491536,
1858,1858,7513,2021-09-24 15:18:29.074,-0.3455829620361328,
1859,1859,7517,2021-09-24 15:18:29.078,0.0077692667643229,
1860,1860,7521,2021-09-24 15:18:29.082,-0.1845200856526692,
1861,1861,7525,2021-09-24 15:18:29.086,-0.1639016469319661,
1862,1862,7529,2021-09-24 15:18:29.090,-0.0661881764729817,
1863,1863,7533,2021-09-24 15:18:29.094,-0.365753173828125,
1864,1864,7537,2021-09-24 15:18:29.098,-0.0506496429443359,
1865,1865,7541,2021-09-24 15:18:29.102,-0.2644538879394532,
1866,1866,7545,2021-09-24 15:18:29.106,-0.2381579081217448,
1867,1867,7549,2021-09-24 15:18:29.110,-0.0872548421223958,
1868,1868,7553,2021-09-24 15:18:29.114,-0.2835782368977865,
1869,1869,7557,2021-09-24 15:18:29.118,0.1822789510091146,
1870,1870,7561,2021-09-24 15:18:29.122,0.1630051930745442,
1871,1871,7565,2021-09-24 15:18:29.126,0.315252939860026,
1872,1872,7569,2021-09-24 15:18:29.130,0.4964860280354818,
1873,1873,7573,2021-09-24 15:18:29.134,0.1736132303873698,
1874,1874,7577,2021-09-24 15:18:29.138,0.3092765808105469,
1875,1875,7581,2021-09-24 15:18:29.142,-0.1881059010823567,
1876,1876,7585,2021-09-24 15:18:29.146,-0.602566401163737,
1877,1877,7589,2021-09-24 15:18:29.150,-0.9563668568929038,
1878,1878,7593,2021-09-24 15:18:29.154,-1.5958372751871748,
1879,1879,7597,2021-09-24 15:18:29.158,-1.4764595031738283,
1880,1880,7601,2021-09-24 15:18:29.162,-1.5554968516031904,
1881,1881,7605,2021-09-24 15:18:29.166,-1.2175337473551433,
1882,1882,7609,2021-09-24 15:18:29.170,-0.6432056427001954,
1883,1883,7613,2021-09-24 15:18:29.174,-0.4498704274495443,
1884,1884,7617,2021-09-24 15:18:29.178,0.2315839131673177,
1885,1885,7621,2021-09-24 15:18:29.182,0.2484671274820963,
1886,1886,7625,2021-09-24 15:18:29.186,0.3325843811035157,
1887,1887,7629,2021-09-24 15:18:29.190,0.4131158192952474,
1888,1888,7633,2021-09-24 15:18:29.194,0.0479602813720703,
1889,1889,7637,2021-09-24 15:18:29.198,0.2929910024007162,
1890,1890,7641,2021-09-24 15:18:29.202,0.0270430246988932,
1891,1891,7645,2021-09-24 15:18:29.206,0.0076198577880859,
1892,1892,7649,2021-09-24 15:18:29.210,0.0917371114095052,
1893,1893,7653,2021-09-24 15:18:29.214,-0.2392037709554036,
1894,1894,7657,2021-09-24 15:18:29.218,0.0637976328531901,
1895,1895,7661,2021-09-24 15:18:29.222,-0.15777587890625,
1896,1896,7665,2021-09-24 15:18:29.226,-0.164798100789388,
1897,1897,7669,2021-09-24 15:18:29.230,-0.0794855753580729,
1898,1898,7673,2021-09-24 15:18:29.234,-0.4007148742675782,
1899,1899,7677,2021-09-24 15:18:29.238,-0.0897947947184244,
1900,1900,7681,2021-09-24 15:18:29.242,-0.293738047281901,
1901,1901,7685,2021-09-24 15:18:29.246,-0.257879892985026,
1902,1902,7689,2021-09-24 15:18:29.250,-0.1343186696370442,
1903,1903,7693,2021-09-24 15:18:29.254,-0.4359753926595052,
1904,1904,7697,2021-09-24 15:18:29.258,-0.114148457845052,
1905,1905,7701,2021-09-24 15:18:29.262,-0.3185399373372396,
1906,1906,7705,2021-09-24 15:18:29.266,-0.2832794189453125,
1907,1907,7709,2021-09-24 15:18:29.270,-0.150753657023112,
1908,1908,7713,2021-09-24 15:18:29.274,-0.4434458414713542,
1909,1909,7717,2021-09-24 15:18:29.278,-0.1030921936035156,
1910,1910,7721,2021-09-24 15:18:29.282,-0.2961285909016927,
1911,1911,7725,2021-09-24 15:18:29.286,-0.2519035339355469,
1912,1912,7729,2021-09-24 15:18:29.290,-0.1169872283935547,
1913,1913,7733,2021-09-24 15:18:29.294,-0.4063924153645833,
1914,1914,7737,2021-09-24 15:18:29.298,-0.0630505879720052,
1915,1915,7741,2021-09-24 15:18:29.302,-0.2532482147216797,
1916,1916,7745,2021-09-24 15:18:29.306,-0.2235158284505208,
1917,1917,7749,2021-09-24 15:18:29.310,-0.1116085052490234,
1918,1918,7753,2021-09-24 15:18:29.314,-0.4294013977050782,
1919,1919,7757,2021-09-24 15:18:29.318,-0.1056321461995442,
1920,1920,7761,2021-09-24 15:18:29.322,-0.3200340270996094,
1921,1921,7765,2021-09-24 15:18:29.326,-0.2914969126383464,
1922,1922,7769,2021-09-24 15:18:29.330,-0.1598676045735677,
1923,1923,7773,2021-09-24 15:18:29.334,-0.4358259836832683,
1924,1924,7777,2021-09-24 15:18:29.338,-0.0738080342610677,
1925,1925,7781,2021-09-24 15:18:29.342,-0.2596728006998698,
1926,1926,7785,2021-09-24 15:18:29.346,-0.2315839131673177,
1927,1927,7789,2021-09-24 15:18:29.350,-0.1178836822509765,
1928,1928,7793,2021-09-24 15:18:29.354,-0.4258155822753907,
1929,1929,7797,2021-09-24 15:18:29.358,-0.093231201171875,
1930,1930,7801,2021-09-24 15:18:29.362,-0.2811876932779948,
1931,1931,7805,2021-09-24 15:18:29.366,-0.2215735117594401,
1932,1932,7809,2021-09-24 15:18:29.370,-0.0753021240234375,
1933,1933,7813,2021-09-24 15:18:29.374,-0.3751659393310547,
1934,1934,7817,2021-09-24 15:18:29.378,-0.035260518391927,
1935,1935,7821,2021-09-24 15:18:29.382,-0.2248605092366536,
1936,1936,7825,2021-09-24 15:18:29.386,-0.1827271779378255,
1937,1937,7829,2021-09-24 15:18:29.390,-0.0614070892333984,
1938,1938,7833,2021-09-24 15:18:29.394,-0.3806940714518229,
1939,1939,7837,2021-09-24 15:18:29.398,-0.0684293111165364,
1940,1940,7841,2021-09-24 15:18:29.402,-0.2805900573730469,
1941,1941,7845,2021-09-24 15:18:29.406,-0.2553399403889974,
1942,1942,7849,2021-09-24 15:18:29.410,-0.1301352183024088,
1943,1943,7853,2021-09-24 15:18:29.414,-0.4270108540852865,
1944,1944,7857,2021-09-24 15:18:29.418,-0.1044368743896484,
1945,1945,7861,2021-09-24 15:18:29.422,-0.3116671244303385,
1946,1946,7865,2021-09-24 15:18:29.426,-0.2874628702799479,
1947,1947,7869,2021-09-24 15:18:29.430,-0.1670392354329427,
1948,1948,7873,2021-09-24 15:18:29.434,-0.4658571879069011,
1949,1949,7877,2021-09-24 15:18:29.438,-0.128939946492513,
1950,1950,7881,2021-09-24 15:18:29.442,-0.315402348836263,
1951,1951,7885,2021-09-24 15:18:29.446,-0.2714761098225912,
1952,1952,7889,2021-09-24 15:18:29.450,-0.1253541310628255,
1953,1953,7893,2021-09-24 15:18:29.454,-0.4226779937744141,
1954,1954,7897,2021-09-24 15:18:29.458,-0.0875536600748698,
1955,1955,7901,2021-09-24 15:18:29.462,-0.2807394663492839,
1956,1956,7905,2021-09-24 15:18:29.466,-0.2217229207356771,
1957,1957,7909,2021-09-24 15:18:29.470,-0.0558789571126302,
1958,1958,7913,2021-09-24 15:18:29.474,-0.3402042388916016,
1959,1959,7917,2021-09-24 15:18:29.478,-0.0129985809326171,
1960,1960,7921,2021-09-24 15:18:29.482,-0.236962636311849,
1961,1961,7925,2021-09-24 15:18:29.486,-0.2269522349039713,
1962,1962,7929,2021-09-24 15:18:29.490,-0.0815773010253906,
1963,1963,7933,2021-09-24 15:18:29.494,-0.4270108540852865,
1964,1964,7937,2021-09-24 15:18:29.498,-0.1281929016113281,
1965,1965,7941,2021-09-24 15:18:29.502,-0.1210212707519531,
1966,1966,7945,2021-09-24 15:18:29.506,-0.2777512868245443,
1967,1967,7949,2021-09-24 15:18:29.510,-0.0122515360514322,
1968,1968,7953,2021-09-24 15:18:29.514,-0.3430430094401042,
1969,1969,7957,2021-09-24 15:18:29.518,-0.1390997568766276,
1970,1970,7961,2021-09-24 15:18:29.522,-0.1931858062744141,
1971,1971,7965,2021-09-24 15:18:29.526,-0.3709824879964193,
1972,1972,7969,2021-09-24 15:18:29.530,-0.0815773010253906,
1973,1973,7973,2021-09-24 15:18:29.534,-0.3736718495686849,
1974,1974,7977,2021-09-24 15:18:29.538,-0.1308822631835937,
1975,1975,7981,2021-09-24 15:18:29.542,-0.1715215047200521,
1976,1976,7985,2021-09-24 15:18:29.546,-0.3667990366617839,
1977,1977,7989,2021-09-24 15:18:29.550,-0.1111602783203125,
1978,1978,7993,2021-09-24 15:18:29.554,-0.4129664103190105,
1979,1979,7997,2021-09-24 15:18:29.558,-0.1594193776448567,
1980,1980,8001,2021-09-24 15:18:29.562,-0.18646240234375,
1981,1981,8005,2021-09-24 15:18:29.566,-0.3493181864420573,
1982,1982,8009,2021-09-24 15:18:29.570,-0.0724633534749349,
1983,1983,8013,2021-09-24 15:18:29.574,-0.3889115651448568,
1984,1984,8017,2021-09-24 15:18:29.578,-0.1491101582845052,
1985,1985,8021,2021-09-24 15:18:29.582,-0.1795895894368489,
1986,1986,8025,2021-09-24 15:18:29.586,-0.322872797648112,
1987,1987,8029,2021-09-24 15:18:29.590,-0.020917256673177,
1988,1988,8033,2021-09-24 15:18:29.594,-0.315252939860026,
1989,1989,8037,2021-09-24 15:18:29.598,-0.093081792195638,
1990,1990,8041,2021-09-24 15:18:29.602,-0.1843706766764323,
1991,1991,8045,2021-09-24 15:18:29.606,-0.3848775227864583,
1992,1992,8049,2021-09-24 15:18:29.610,-0.1048851013183593,
1993,1993,8053,2021-09-24 15:18:29.614,-0.3938420613606771,
1994,1994,8057,2021-09-24 15:18:29.618,-0.1374562581380208,
1995,1995,8061,2021-09-24 15:18:29.622,-0.1754061381022135,
1996,1996,8065,2021-09-24 15:18:29.626,-0.3491687774658203,
1997,1997,8069,2021-09-24 15:18:29.630,-0.0806808471679687,
1998,1998,8073,2021-09-24 15:18:29.634,-0.3869692484537761,
1999,1999,8077,2021-09-24 15:18:29.638,-0.1355139414469401,
2000,2000,8081,2021-09-24 15:18:29.642,-0.1607640584309896,
2001,2001,8085,2021-09-24 15:18:29.646,-0.3119659423828125,
2002,2002,8089,2021-09-24 15:18:29.650,-0.0383981068929036,
2003,2003,8093,2021-09-24 15:18:29.654,-0.3540992736816407,
2004,2004,8097,2021-09-24 15:18:29.658,-0.1332728068033854,
2005,2005,8101,2021-09-24 15:18:29.662,-0.1818307240804036,
2006,2006,8105,2021-09-24 15:18:29.666,-0.3413995107014974,
2007,2007,8109,2021-09-24 15:18:29.670,-0.0609588623046875,
2008,2008,8113,2021-09-24 15:18:29.674,-0.3824869791666667,
2009,2009,8117,2021-09-24 15:18:29.678,-0.164798100789388,
2010,2010,8121,2021-09-24 15:18:29.682,-0.2132066090901693,
2011,2011,8125,2021-09-24 15:18:29.686,-0.3642590840657552,
2012,2012,8129,2021-09-24 15:18:29.690,-0.0614070892333984,
2013,2013,8133,2021-09-24 15:18:29.694,-0.3618685404459635,
2014,2014,8137,2021-09-24 15:18:29.698,-0.1238600413004557,
2015,2015,8141,2021-09-24 15:18:29.702,-0.1824283599853516,
2016,2016,8145,2021-09-24 15:18:29.706,-0.3676954905192057,
2017,2017,8149,2021-09-24 15:18:29.710,-0.092782974243164,
2018,2018,8153,2021-09-24 15:18:29.714,-0.3963820139567058,
2019,2019,8157,2021-09-24 15:18:29.718,-0.1465702056884766,
2020,2020,8161,2021-09-24 15:18:29.722,-0.1828765869140625,
2021,2021,8165,2021-09-24 15:18:29.726,-0.3473758697509766,
2022,2022,8169,2021-09-24 15:18:29.730,-0.0531895955403645,
2023,2023,8173,2021-09-24 15:18:29.734,-0.3608226776123047,
2024,2024,8177,2021-09-24 15:18:29.738,-0.1249059041341145,
2025,2025,8181,2021-09-24 15:18:29.742,-0.1710732777913411,
2026,2026,8185,2021-09-24 15:18:29.746,-0.3488699595133464,
2027,2027,8189,2021-09-24 15:18:29.750,-0.0700728098551432,
2028,2028,8193,2021-09-24 15:18:29.754,-0.3791999816894532,
2029,2029,8197,2021-09-24 15:18:29.758,-0.1388009389241536,
2030,2030,8201,2021-09-24 15:18:29.762,-0.178991953531901,
2031,2031,8205,2021-09-24 15:18:29.766,-0.3415489196777344,
2032,2032,8209,2021-09-24 15:18:29.770,-0.0534884134928385,
2033,2033,8213,2021-09-24 15:18:29.774,-0.3614203135172526,
2034,2034,8217,2021-09-24 15:18:29.778,-0.12908935546875,
2035,2035,8221,2021-09-24 15:18:29.782,-0.1884047190348307,
2036,2036,8225,2021-09-24 15:18:29.786,-0.3617191314697266,
2037,2037,8229,2021-09-24 15:18:29.790,-0.035260518391927,
2038,2038,8233,2021-09-24 15:18:29.794,-0.2338250478108724,
2039,2039,8237,2021-09-24 15:18:29.798,0.1491101582845052,
2040,2040,8241,2021-09-24 15:18:29.802,0.2647527058919271,
2041,2041,8245,2021-09-24 15:18:29.806,0.2176888783772786,
2042,2042,8249,2021-09-24 15:18:29.810,0.5329418182373048,
2043,2043,8253,2021-09-24 15:18:29.814,0.1981163024902344,
2044,2044,8257,2021-09-24 15:18:29.818,0.2460765838623047,
2045,2045,8261,2021-09-24 15:18:29.822,-0.1180330912272135,
2046,2046,8265,2021-09-24 15:18:29.826,-0.7234382629394532,
