,Unnamed: 0,Tick Time,RTC Time,ECG,marker
0,0,105,2021-10-05 17:13:14.180,-0.1997598012288411,
1,1,109,2021-10-05 17:13:14.184,-0.2190335591634115,
2,2,113,2021-10-05 17:13:14.188,-0.2160453796386719,
3,3,117,2021-10-05 17:13:14.192,-0.208126703898112,
4,4,121,2021-10-05 17:13:14.196,-0.2333768208821615,
5,5,125,2021-10-05 17:13:14.200,-0.2233664194742838,
6,6,129,2021-10-05 17:13:14.204,-0.2477200826009115,
7,7,133,2021-10-05 17:13:14.208,-0.2320321400960286,
8,8,137,2021-10-05 17:13:14.212,-0.2163441975911458,
9,9,141,2021-10-05 17:13:14.216,-0.2350203196207682,
10,10,145,2021-10-05 17:13:14.220,-0.2157465616861979,
11,11,149,2021-10-05 17:13:14.224,-0.2466742197672526,
12,12,153,2021-10-05 17:13:14.228,-0.2347215016682943,
13,13,157,2021-10-05 17:13:14.232,-0.2185853322347005,
14,14,161,2021-10-05 17:13:14.236,-0.2342732747395833,
15,15,165,2021-10-05 17:13:14.240,-0.2094713846842448,
16,16,169,2021-10-05 17:13:14.244,-0.2342732747395833,
17,17,173,2021-10-05 17:13:14.248,-0.2299404144287109,
18,18,177,2021-10-05 17:13:14.252,-0.2175394694010416,
19,19,181,2021-10-05 17:13:14.256,-0.2384567260742187,
20,20,185,2021-10-05 17:13:14.260,-0.2170912424723307,
21,21,189,2021-10-05 17:13:14.264,-0.2405484517415365,
22,22,193,2021-10-05 17:13:14.268,-0.2206770579020182,
23,23,197,2021-10-05 17:13:14.272,-0.2036444346110026,
24,24,201,2021-10-05 17:13:14.276,-0.2275498708089193,
25,25,205,2021-10-05 17:13:14.280,-0.2070808410644531,
26,26,209,2021-10-05 17:13:14.284,-0.2287451426188151,
27,27,213,2021-10-05 17:13:14.288,-0.2194817860921224,
28,28,217,2021-10-05 17:13:14.292,-0.2161947886149088,
29,29,221,2021-10-05 17:13:14.296,-0.2392037709554036,
30,30,225,2021-10-05 17:13:14.300,-0.2129077911376953,
31,31,229,2021-10-05 17:13:14.304,-0.2327791849772135,
32,32,233,2021-10-05 17:13:14.308,-0.2205276489257812,
33,33,237,2021-10-05 17:13:14.312,-0.2105172475179036,
34,34,241,2021-10-05 17:13:14.316,-0.2318827311197916,
35,35,245,2021-10-05 17:13:14.320,-0.2042420705159505,
36,36,249,2021-10-05 17:13:14.324,-0.2232170104980469,
37,37,253,2021-10-05 17:13:14.328,-0.2121607462565104,
38,38,257,2021-10-05 17:13:14.332,-0.2067820231119791,
39,39,261,2021-10-05 17:13:14.336,-0.2332274119059245,
40,40,265,2021-10-05 17:13:14.340,-0.2100690205891927,
41,41,269,2021-10-05 17:13:14.344,-0.2309862772623698,
42,42,273,2021-10-05 17:13:14.348,-0.2209758758544922,
43,43,277,2021-10-05 17:13:14.352,-0.2129077911376953,
44,44,281,2021-10-05 17:13:14.356,-0.2332274119059245,
45,45,285,2021-10-05 17:13:14.360,-0.2124595642089844,
46,46,289,2021-10-05 17:13:14.364,-0.2399508158365885,
47,47,293,2021-10-05 17:13:14.368,-0.2271016438802083,
48,48,297,2021-10-05 17:13:14.372,-0.2124595642089844,
49,49,301,2021-10-05 17:13:14.376,-0.2275498708089193,
50,50,305,2021-10-05 17:13:14.380,-0.208276112874349,
51,51,309,2021-10-05 17:13:14.384,-0.2339744567871094,
52,52,313,2021-10-05 17:13:14.388,-0.2278486887613932,
53,53,317,2021-10-05 17:13:14.392,-0.2187347412109375,
54,54,321,2021-10-05 17:13:14.396,-0.2424907684326172,
55,55,325,2021-10-05 17:13:14.400,-0.2161947886149088,
56,56,329,2021-10-05 17:13:14.404,-0.229342778523763,
57,57,333,2021-10-05 17:13:14.408,-0.222320556640625,
58,58,337,2021-10-05 17:13:14.412,-0.2170912424723307,
59,59,341,2021-10-05 17:13:14.416,-0.236663818359375,
60,60,345,2021-10-05 17:13:14.420,-0.2097702026367187,
61,61,349,2021-10-05 17:13:14.424,-0.2323309580485026,
62,62,353,2021-10-05 17:13:14.428,-0.2236652374267578,
63,63,357,2021-10-05 17:13:14.432,-0.2164936065673828,
64,64,361,2021-10-05 17:13:14.436,-0.2375602722167969,
65,65,365,2021-10-05 17:13:14.440,-0.2191829681396484,
66,66,369,2021-10-05 17:13:14.444,-0.2401002248128255,
67,67,373,2021-10-05 17:13:14.448,-0.2229181925455729,
68,68,377,2021-10-05 17:13:14.452,-0.2039432525634766,
69,69,381,2021-10-05 17:13:14.456,-0.2138042449951172,
70,70,385,2021-10-05 17:13:14.460,-0.1858647664388021,
71,71,389,2021-10-05 17:13:14.464,-0.2052879333496094,
72,72,393,2021-10-05 17:13:14.468,-0.1931858062744141,
73,73,397,2021-10-05 17:13:14.472,-0.1988633473714193,
74,74,401,2021-10-05 17:13:14.476,-0.2274004618326823,
75,75,405,2021-10-05 17:13:14.480,-0.2063337961832682,
76,76,409,2021-10-05 17:13:14.484,-0.2217229207356771,
77,77,413,2021-10-05 17:13:14.488,-0.2045408884684245,
78,78,417,2021-10-05 17:13:14.492,-0.1958751678466797,
79,79,421,2021-10-05 17:13:14.496,-0.2209758758544922,
80,80,425,2021-10-05 17:13:14.500,-0.2058855692545573,
81,81,429,2021-10-05 17:13:14.504,-0.2254581451416016,
82,82,433,2021-10-05 17:13:14.508,-0.2176888783772786,
83,83,437,2021-10-05 17:13:14.512,-0.2069314320882161,
84,84,441,2021-10-05 17:13:14.516,-0.2274004618326823,
85,85,445,2021-10-05 17:13:14.520,-0.2087243398030599,
86,86,449,2021-10-05 17:13:14.524,-0.2375602722167969,
87,87,453,2021-10-05 17:13:14.528,-0.229342778523763,
88,88,457,2021-10-05 17:13:14.532,-0.2181371053059896,
89,89,461,2021-10-05 17:13:14.536,-0.2320321400960286,
90,90,465,2021-10-05 17:13:14.540,-0.2085749308268229,
91,91,469,2021-10-05 17:13:14.544,-0.2284463246663411,
92,92,473,2021-10-05 17:13:14.548,-0.2205276489257812,
93,93,477,2021-10-05 17:13:14.552,-0.2138042449951172,
94,94,481,2021-10-05 17:13:14.556,-0.2317333221435547,
95,95,485,2021-10-05 17:13:14.560,-0.2090231577555338,
96,96,489,2021-10-05 17:13:14.564,-0.2329285939534505,
97,97,493,2021-10-05 17:13:14.568,-0.2247111002604166,
98,98,497,2021-10-05 17:13:14.572,-0.2179876963297526,
99,99,501,2021-10-05 17:13:14.576,-0.2414449055989583,
100,100,505,2021-10-05 17:13:14.580,-0.222619374593099,
101,101,509,2021-10-05 17:13:14.584,-0.2418931325276693,
102,102,513,2021-10-05 17:13:14.588,-0.2329285939534505,
103,103,517,2021-10-05 17:13:14.592,-0.2205276489257812,
104,104,521,2021-10-05 17:13:14.596,-0.2335262298583984,
105,105,525,2021-10-05 17:13:14.600,-0.2051385243733724,
106,106,529,2021-10-05 17:13:14.604,-0.229641596476237,
107,107,533,2021-10-05 17:13:14.608,-0.2244122823079427,
108,108,537,2021-10-05 17:13:14.612,-0.2187347412109375,
109,109,541,2021-10-05 17:13:14.616,-0.2409966786702474,
110,110,545,2021-10-05 17:13:14.620,-0.2167924245198568,
111,111,549,2021-10-05 17:13:14.624,-0.2329285939534505,
112,112,553,2021-10-05 17:13:14.628,-0.2265040079752604,
113,113,557,2021-10-05 17:13:14.632,-0.2229181925455729,
114,114,561,2021-10-05 17:13:14.636,-0.236514409383138,
115,115,565,2021-10-05 17:13:14.640,-0.2049891153971354,
116,116,569,2021-10-05 17:13:14.644,-0.2139536539713541,
117,117,573,2021-10-05 17:13:14.648,-0.1966222127278646,
118,118,577,2021-10-05 17:13:14.652,-0.1855659484863281,
119,119,581,2021-10-05 17:13:14.656,-0.2048397064208984,
120,120,585,2021-10-05 17:13:14.660,-0.1852671305338541,
121,121,589,2021-10-05 17:13:14.664,-0.2114137013753255,
122,122,593,2021-10-05 17:13:14.668,-0.2114137013753255,
123,123,597,2021-10-05 17:13:14.672,-0.2055867513020833,
124,124,601,2021-10-05 17:13:14.676,-0.2321815490722656,
125,125,605,2021-10-05 17:13:14.680,-0.2167924245198568,
126,126,609,2021-10-05 17:13:14.684,-0.2433872222900391,
127,127,613,2021-10-05 17:13:14.688,-0.236514409383138,
128,128,617,2021-10-05 17:13:14.692,-0.2345720926920573,
129,129,621,2021-10-05 17:13:14.696,-0.2613162994384766,
130,130,625,2021-10-05 17:13:14.700,-0.2409966786702474,
131,131,629,2021-10-05 17:13:14.704,-0.2602704366048177,
132,132,633,2021-10-05 17:13:14.708,-0.2447319030761719,
133,133,637,2021-10-05 17:13:14.712,-0.2235158284505208,
134,134,641,2021-10-05 17:13:14.716,-0.2300898234049479,
135,135,645,2021-10-05 17:13:14.720,-0.2028973897298177,
136,136,649,2021-10-05 17:13:14.724,-0.222171147664388,
137,137,653,2021-10-05 17:13:14.728,-0.2133560180664062,
138,138,657,2021-10-05 17:13:14.732,-0.2031962076822916,
139,139,661,2021-10-05 17:13:14.736,-0.2229181925455729,
140,140,665,2021-10-05 17:13:14.740,-0.2021503448486328,
141,141,669,2021-10-05 17:13:14.744,-0.222171147664388,
142,142,673,2021-10-05 17:13:14.748,-0.208126703898112,
143,143,677,2021-10-05 17:13:14.752,-0.1948293050130208,
144,144,681,2021-10-05 17:13:14.756,-0.2132066090901693,
145,145,685,2021-10-05 17:13:14.760,-0.1984151204427083,
146,146,689,2021-10-05 17:13:14.764,-0.2281475067138672,
147,147,693,2021-10-05 17:13:14.768,-0.215298334757487,
148,148,697,2021-10-05 17:13:14.772,-0.2036444346110026,
149,149,701,2021-10-05 17:13:14.776,-0.2230676015218099,
150,150,705,2021-10-05 17:13:14.780,-0.200656255086263,
151,151,709,2021-10-05 17:13:14.784,-0.2230676015218099,
152,152,713,2021-10-05 17:13:14.788,-0.2099196116129557,
153,153,717,2021-10-05 17:13:14.792,-0.207827885945638,
154,154,721,2021-10-05 17:13:14.796,-0.2308368682861328,
155,155,725,2021-10-05 17:13:14.800,-0.2127583821614583,
156,156,729,2021-10-05 17:13:14.804,-0.2432378133138021,
157,157,733,2021-10-05 17:13:14.808,-0.2501106262207032,
158,158,737,2021-10-05 17:13:14.812,-0.2477200826009115,
159,159,741,2021-10-05 17:13:14.816,-0.2390543619791666,
160,160,745,2021-10-05 17:13:14.820,-0.1479148864746094,
161,161,749,2021-10-05 17:13:14.824,-0.0615564982096354,
162,162,753,2021-10-05 17:13:14.828,0.0615564982096354,
163,163,757,2021-10-05 17:13:14.832,0.1697285970052083,
164,164,761,2021-10-05 17:13:14.836,0.236813227335612,
165,165,765,2021-10-05 17:13:14.840,0.2693843841552735,
166,166,769,2021-10-05 17:13:14.844,0.1234118143717448,
167,167,773,2021-10-05 17:13:14.848,-0.1452255249023437,
168,168,777,2021-10-05 17:13:14.852,-0.5764198303222657,
169,169,781,2021-10-05 17:13:14.856,-1.041081746419271,
170,170,785,2021-10-05 17:13:14.860,-1.3297398885091147,
171,171,789,2021-10-05 17:13:14.864,-1.3942845662434895,
172,172,793,2021-10-05 17:13:14.868,-1.0936737060546875,
173,173,797,2021-10-05 17:13:14.872,-0.6107838948567709,
174,174,801,2021-10-05 17:13:14.876,-0.1963233947753906,
175,175,805,2021-10-05 17:13:14.880,0.0984605153401692,
176,176,809,2021-10-05 17:13:14.884,0.1888529459635416,
177,177,813,2021-10-05 17:13:14.888,0.1997598012288411,
178,178,817,2021-10-05 17:13:14.892,0.1655451456705729,
179,179,821,2021-10-05 17:13:14.896,0.0962193806966145,
180,180,825,2021-10-05 17:13:14.900,0.0691763559977213,
181,181,829,2021-10-05 17:13:14.904,0.007022221883138,
182,182,833,2021-10-05 17:13:14.908,-0.0382486979166666,
183,183,837,2021-10-05 17:13:14.912,-0.0803820292154948,
184,184,841,2021-10-05 17:13:14.916,-0.1370080312093099,
185,185,845,2021-10-05 17:13:14.920,-0.1437314351399739,
186,186,849,2021-10-05 17:13:14.924,-0.1858647664388021,
187,187,853,2021-10-05 17:13:14.928,-0.200656255086263,
188,188,857,2021-10-05 17:13:14.932,-0.2112642923990885,
189,189,861,2021-10-05 17:13:14.936,-0.244134267171224,
190,190,865,2021-10-05 17:13:14.940,-0.2354685465494791,
191,191,869,2021-10-05 17:13:14.944,-0.2556387583414714,
192,192,873,2021-10-05 17:13:14.948,-0.2517541249593099,
193,193,877,2021-10-05 17:13:14.952,-0.2281475067138672,
194,194,881,2021-10-05 17:13:14.956,-0.2550411224365235,
195,195,885,2021-10-05 17:13:14.960,-0.2381579081217448,
196,196,889,2021-10-05 17:13:14.964,-0.2536964416503907,
197,197,893,2021-10-05 17:13:14.968,-0.2644538879394532,
198,198,897,2021-10-05 17:13:14.972,-0.2412954966227213,
199,199,901,2021-10-05 17:13:14.976,-0.2548917134602865,
200,200,905,2021-10-05 17:13:14.980,-0.2276992797851562,
201,201,909,2021-10-05 17:13:14.984,-0.2338250478108724,
202,202,913,2021-10-05 17:13:14.988,-0.2459271748860677,
203,203,917,2021-10-05 17:13:14.992,-0.2326297760009766,
204,204,921,2021-10-05 17:13:14.996,-0.2522023518880208,
205,205,925,2021-10-05 17:13:15.000,-0.2230676015218099,
206,206,929,2021-10-05 17:13:15.004,-0.2176888783772786,
207,207,933,2021-10-05 17:13:15.008,-0.2135054270426432,
208,208,937,2021-10-05 17:13:15.012,-0.1898988087972005,
209,209,941,2021-10-05 17:13:15.016,-0.2139536539713541,
210,210,945,2021-10-05 17:13:15.020,-0.1975186665852865,
211,211,949,2021-10-05 17:13:15.024,-0.2094713846842448,
212,212,953,2021-10-05 17:13:15.028,-0.21514892578125,
213,213,957,2021-10-05 17:13:15.032,-0.1951281229654948,
214,214,961,2021-10-05 17:13:15.036,-0.2196311950683594,
215,215,965,2021-10-05 17:13:15.040,-0.1957257588704427,
216,216,969,2021-10-05 17:13:15.044,-0.2031962076822916,
217,217,973,2021-10-05 17:13:15.048,-0.2117125193277995,
218,218,977,2021-10-05 17:13:15.052,-0.1948293050130208,
219,219,981,2021-10-05 17:13:15.056,-0.2173900604248047,
220,220,985,2021-10-05 17:13:15.060,-0.1997598012288411,
221,221,989,2021-10-05 17:13:15.064,-0.2181371053059896,
222,222,993,2021-10-05 17:13:15.068,-0.2321815490722656,
223,223,997,2021-10-05 17:13:15.072,-0.2172406514485677,
224,224,1001,2021-10-05 17:13:15.076,-0.2430884043375651,
225,225,1005,2021-10-05 17:13:15.080,-0.2262051900227865,
226,226,1009,2021-10-05 17:13:15.084,-0.2430884043375651,
227,227,1013,2021-10-05 17:13:15.088,-0.258626937866211,
228,228,1017,2021-10-05 17:13:15.092,-0.2457777659098307,
229,229,1021,2021-10-05 17:13:15.096,-0.2702808380126953,
230,230,1025,2021-10-05 17:13:15.100,-0.2553399403889974,
231,231,1029,2021-10-05 17:13:15.104,-0.2711772918701172,
232,232,1033,2021-10-05 17:13:15.108,-0.2820841471354167,
233,233,1037,2021-10-05 17:13:15.112,-0.2672926584879557,
234,234,1041,2021-10-05 17:13:15.116,-0.2904510498046875,
235,235,1045,2021-10-05 17:13:15.120,-0.2649021148681641,
236,236,1049,2021-10-05 17:13:15.124,-0.27252197265625,
237,237,1053,2021-10-05 17:13:15.128,-0.2699820200602214,
238,238,1057,2021-10-05 17:13:15.132,-0.2359167734781901,
239,239,1061,2021-10-05 17:13:15.136,-0.2487659454345703,
240,240,1065,2021-10-05 17:13:15.140,-0.2178382873535156,
241,241,1069,2021-10-05 17:13:15.144,-0.2164936065673828,
242,242,1073,2021-10-05 17:13:15.148,-0.2097702026367187,
243,243,1077,2021-10-05 17:13:15.152,-0.1798884073893229,
244,244,1081,2021-10-05 17:13:15.156,-0.1979668935139974,
245,245,1085,2021-10-05 17:13:15.160,-0.1761531829833984,
246,246,1089,2021-10-05 17:13:15.164,-0.1809342702229817,
247,247,1093,2021-10-05 17:13:15.168,-0.1785437266031901,
248,248,1097,2021-10-05 17:13:15.172,-0.1522477467854817,
249,249,1101,2021-10-05 17:13:15.176,-0.171969731648763,
250,250,1105,2021-10-05 17:13:15.180,-0.164648691813151,
251,251,1109,2021-10-05 17:13:15.184,-0.1822789510091146,
252,252,1113,2021-10-05 17:13:15.188,-0.1990127563476562,
253,253,1117,2021-10-05 17:13:15.192,-0.186163584391276,
254,254,1121,2021-10-05 17:13:15.196,-0.214999516805013,
255,255,1125,2021-10-05 17:13:15.200,-0.2018515268961588,
256,256,1129,2021-10-05 17:13:15.204,-0.2120113372802734,
257,257,1133,2021-10-05 17:13:15.208,-0.2164936065673828,
258,258,1137,2021-10-05 17:13:15.212,-0.1988633473714193,
259,259,1141,2021-10-05 17:13:15.216,-0.2256075541178385,
260,260,1145,2021-10-05 17:13:15.220,-0.2108160654703776,
261,261,1149,2021-10-05 17:13:15.224,-0.2191829681396484,
262,262,1153,2021-10-05 17:13:15.228,-0.2218723297119141,
263,263,1157,2021-10-05 17:13:15.232,-0.2015527089436849,
264,264,1161,2021-10-05 17:13:15.236,-0.2278486887613932,
265,265,1165,2021-10-05 17:13:15.240,-0.2172406514485677,
266,266,1169,2021-10-05 17:13:15.244,-0.2302392323811849,
267,267,1173,2021-10-05 17:13:15.248,-0.2344226837158203,
268,268,1177,2021-10-05 17:13:15.252,-0.2179876963297526,
269,269,1181,2021-10-05 17:13:15.256,-0.2411460876464844,
270,270,1185,2021-10-05 17:13:15.260,-0.2233664194742838,
271,271,1189,2021-10-05 17:13:15.264,-0.229641596476237,
272,272,1193,2021-10-05 17:13:15.268,-0.2384567260742187,
273,273,1197,2021-10-05 17:13:15.272,-0.2338250478108724,
274,274,1201,2021-10-05 17:13:15.276,-0.2638562520345052,
275,275,1205,2021-10-05 17:13:15.280,-0.2408472696940104,
276,276,1209,2021-10-05 17:13:15.284,-0.2338250478108724,
277,277,1213,2021-10-05 17:13:15.288,-0.2318827311197916,
278,278,1217,2021-10-05 17:13:15.292,-0.215298334757487,
279,279,1221,2021-10-05 17:13:15.296,-0.2447319030761719,
280,280,1225,2021-10-05 17:13:15.300,-0.2332274119059245,
281,281,1229,2021-10-05 17:13:15.304,-0.2353191375732422,
282,282,1233,2021-10-05 17:13:15.308,-0.2278486887613932,
283,283,1237,2021-10-05 17:13:15.312,-0.1963233947753906,
284,284,1241,2021-10-05 17:13:15.316,-0.214850107828776,
285,285,1245,2021-10-05 17:13:15.320,-0.2054373423258463,
286,286,1249,2021-10-05 17:13:15.324,-0.2181371053059896,
287,287,1253,2021-10-05 17:13:15.328,-0.2247111002604166,
288,288,1257,2021-10-05 17:13:15.332,-0.2027479807535807,
289,289,1261,2021-10-05 17:13:15.336,-0.2217229207356771,
290,290,1265,2021-10-05 17:13:15.340,-0.2008056640625,
291,291,1269,2021-10-05 17:13:15.344,-0.2069314320882161,
292,292,1273,2021-10-05 17:13:15.348,-0.2206770579020182,
293,293,1277,2021-10-05 17:13:15.352,-0.2120113372802734,
294,294,1281,2021-10-05 17:13:15.356,-0.2308368682861328,
295,295,1285,2021-10-05 17:13:15.360,-0.2109654744466146,
296,296,1289,2021-10-05 17:13:15.364,-0.2085749308268229,
297,297,1293,2021-10-05 17:13:15.368,-0.2147006988525391,
298,298,1297,2021-10-05 17:13:15.372,-0.2057361602783203,
299,299,1301,2021-10-05 17:13:15.376,-0.2360661824544271,
300,300,1305,2021-10-05 17:13:15.380,-0.2172406514485677,
301,301,1309,2021-10-05 17:13:15.384,-0.2124595642089844,
302,302,1313,2021-10-05 17:13:15.388,-0.2139536539713541,
303,303,1317,2021-10-05 17:13:15.392,-0.2017021179199219,
304,304,1321,2021-10-05 17:13:15.396,-0.2271016438802083,
305,305,1325,2021-10-05 17:13:15.400,-0.2191829681396484,
306,306,1329,2021-10-05 17:13:15.404,-0.2251593271891276,
307,307,1333,2021-10-05 17:13:15.408,-0.2309862772623698,
308,308,1337,2021-10-05 17:13:15.412,-0.2118619283040365,
309,309,1341,2021-10-05 17:13:15.416,-0.2287451426188151,
310,310,1345,2021-10-05 17:13:15.420,-0.2067820231119791,
311,311,1349,2021-10-05 17:13:15.424,-0.2138042449951172,
312,312,1353,2021-10-05 17:13:15.428,-0.2241134643554687,
313,313,1357,2021-10-05 17:13:15.432,-0.2163441975911458,
314,314,1361,2021-10-05 17:13:15.436,-0.2371120452880859,
315,315,1365,2021-10-05 17:13:15.440,-0.2133560180664062,
316,316,1369,2021-10-05 17:13:15.444,-0.2090231577555338,
317,317,1373,2021-10-05 17:13:15.448,-0.2133560180664062,
318,318,1377,2021-10-05 17:13:15.452,-0.207678476969401,
319,319,1381,2021-10-05 17:13:15.456,-0.2453295389811198,
320,320,1385,2021-10-05 17:13:15.460,-0.236962636311849,
321,321,1389,2021-10-05 17:13:15.464,-0.236663818359375,
322,322,1393,2021-10-05 17:13:15.468,-0.2309862772623698,
323,323,1397,2021-10-05 17:13:15.472,-0.2084255218505859,
324,324,1401,2021-10-05 17:13:15.476,-0.2287451426188151,
325,325,1405,2021-10-05 17:13:15.480,-0.2126089731852213,
326,326,1409,2021-10-05 17:13:15.484,-0.2200794219970703,
327,327,1413,2021-10-05 17:13:15.488,-0.2266534169514974,
328,328,1417,2021-10-05 17:13:15.492,-0.2066326141357422,
329,329,1421,2021-10-05 17:13:15.496,-0.2254581451416016,
330,330,1425,2021-10-05 17:13:15.500,-0.2075290679931641,
331,331,1429,2021-10-05 17:13:15.504,-0.2190335591634115,
332,332,1433,2021-10-05 17:13:15.508,-0.229342778523763,
333,333,1437,2021-10-05 17:13:15.512,-0.2157465616861979,
334,334,1441,2021-10-05 17:13:15.516,-0.2320321400960286,
335,335,1445,2021-10-05 17:13:15.520,-0.2103678385416666,
336,336,1449,2021-10-05 17:13:15.524,-0.222320556640625,
337,337,1453,2021-10-05 17:13:15.528,-0.2266534169514974,
338,338,1457,2021-10-05 17:13:15.532,-0.2097702026367187,
339,339,1461,2021-10-05 17:13:15.536,-0.2276992797851562,
340,340,1465,2021-10-05 17:13:15.540,-0.2115631103515625,
341,341,1469,2021-10-05 17:13:15.544,-0.2244122823079427,
342,342,1473,2021-10-05 17:13:15.548,-0.236813227335612,
343,343,1477,2021-10-05 17:13:15.552,-0.2227687835693359,
344,344,1481,2021-10-05 17:13:15.556,-0.2353191375732422,
345,345,1485,2021-10-05 17:13:15.560,-0.207977294921875,
346,346,1489,2021-10-05 17:13:15.564,-0.2096207936604818,
347,347,1493,2021-10-05 17:13:15.568,-0.2185853322347005,
348,348,1497,2021-10-05 17:13:15.572,-0.2114137013753255,
349,349,1501,2021-10-05 17:13:15.576,-0.2308368682861328,
350,350,1505,2021-10-05 17:13:15.580,-0.2097702026367187,
351,351,1509,2021-10-05 17:13:15.584,-0.2109654744466146,
352,352,1513,2021-10-05 17:13:15.588,-0.2202288309733073,
353,353,1517,2021-10-05 17:13:15.592,-0.2108160654703776,
354,354,1521,2021-10-05 17:13:15.596,-0.2320321400960286,
355,355,1525,2021-10-05 17:13:15.600,-0.214850107828776,
356,356,1529,2021-10-05 17:13:15.604,-0.2172406514485677,
357,357,1533,2021-10-05 17:13:15.608,-0.2250099182128906,
358,358,1537,2021-10-05 17:13:15.612,-0.2161947886149088,
359,359,1541,2021-10-05 17:13:15.616,-0.2378590901692708,
360,360,1545,2021-10-05 17:13:15.620,-0.2248605092366536,
361,361,1549,2021-10-05 17:13:15.624,-0.2262051900227865,
362,362,1553,2021-10-05 17:13:15.628,-0.2239640553792318,
363,363,1557,2021-10-05 17:13:15.632,-0.2043914794921875,
364,364,1561,2021-10-05 17:13:15.636,-0.2257569630940755,
365,365,1565,2021-10-05 17:13:15.640,-0.207977294921875,
366,366,1569,2021-10-05 17:13:15.644,-0.2123101552327474,
367,367,1573,2021-10-05 17:13:15.648,-0.2272510528564453,
368,368,1577,2021-10-05 17:13:15.652,-0.214999516805013,
369,369,1581,2021-10-05 17:13:15.656,-0.2341238657633463,
370,370,1585,2021-10-05 17:13:15.660,-0.222469965616862,
371,371,1589,2021-10-05 17:13:15.664,-0.2294921875,
372,372,1593,2021-10-05 17:13:15.668,-0.2345720926920573,
373,373,1597,2021-10-05 17:13:15.672,-0.2147006988525391,
374,374,1601,2021-10-05 17:13:15.676,-0.2236652374267578,
375,375,1605,2021-10-05 17:13:15.680,-0.2017021179199219,
376,376,1609,2021-10-05 17:13:15.684,-0.1987139383951823,
377,377,1613,2021-10-05 17:13:15.688,-0.2043914794921875,
378,378,1617,2021-10-05 17:13:15.692,-0.1895999908447266,
379,379,1621,2021-10-05 17:13:15.696,-0.2103678385416666,
380,380,1625,2021-10-05 17:13:15.700,-0.2018515268961588,
381,381,1629,2021-10-05 17:13:15.704,-0.2208264668782552,
382,382,1633,2021-10-05 17:13:15.708,-0.2386061350504557,
383,383,1637,2021-10-05 17:13:15.712,-0.2284463246663411,
384,384,1641,2021-10-05 17:13:15.716,-0.2442836761474609,
385,385,1645,2021-10-05 17:13:15.720,-0.2306874593098958,
386,386,1649,2021-10-05 17:13:15.724,-0.2424907684326172,
387,387,1653,2021-10-05 17:13:15.728,-0.2522023518880208,
388,388,1657,2021-10-05 17:13:15.732,-0.2312850952148437,
389,389,1661,2021-10-05 17:13:15.736,-0.2442836761474609,
390,390,1665,2021-10-05 17:13:15.740,-0.2209758758544922,
391,391,1669,2021-10-05 17:13:15.744,-0.2200794219970703,
392,392,1673,2021-10-05 17:13:15.748,-0.2227687835693359,
393,393,1677,2021-10-05 17:13:15.752,-0.2058855692545573,
394,394,1681,2021-10-05 17:13:15.756,-0.2272510528564453,
395,395,1685,2021-10-05 17:13:15.760,-0.2132066090901693,
396,396,1689,2021-10-05 17:13:15.764,-0.2188841501871745,
397,397,1693,2021-10-05 17:13:15.768,-0.2263545989990234,
398,398,1697,2021-10-05 17:13:15.772,-0.2103678385416666,
399,399,1701,2021-10-05 17:13:15.776,-0.2190335591634115,
400,400,1705,2021-10-05 17:13:15.780,-0.193634033203125,
401,401,1709,2021-10-05 17:13:15.784,-0.193634033203125,
402,402,1713,2021-10-05 17:13:15.788,-0.2058855692545573,
403,403,1717,2021-10-05 17:13:15.792,-0.1984151204427083,
404,404,1721,2021-10-05 17:13:15.796,-0.2272510528564453,
405,405,1725,2021-10-05 17:13:15.800,-0.2262051900227865,
406,406,1729,2021-10-05 17:13:15.804,-0.2339744567871094,
407,407,1733,2021-10-05 17:13:15.808,-0.2357673645019531,
408,408,1737,2021-10-05 17:13:15.812,-0.2120113372802734,
409,409,1741,2021-10-05 17:13:15.816,-0.2266534169514974,
410,410,1745,2021-10-05 17:13:15.820,-0.2120113372802734,
411,411,1749,2021-10-05 17:13:15.824,-0.2185853322347005,
412,412,1753,2021-10-05 17:13:15.828,-0.2262051900227865,
413,413,1757,2021-10-05 17:13:15.832,-0.2112642923990885,
414,414,1761,2021-10-05 17:13:15.836,-0.2333768208821615,
415,415,1765,2021-10-05 17:13:15.840,-0.2333768208821615,
416,416,1769,2021-10-05 17:13:15.844,-0.2415943145751953,
417,417,1773,2021-10-05 17:13:15.848,-0.21514892578125,
418,418,1777,2021-10-05 17:13:15.852,-0.1341692606608073,
419,419,1781,2021-10-05 17:13:15.856,-0.0621541341145833,
420,420,1785,2021-10-05 17:13:15.860,0.0451215108235677,
421,421,1789,2021-10-05 17:13:15.864,0.1204236348470052,
422,422,1793,2021-10-05 17:13:15.868,0.1801872253417969,
423,423,1797,2021-10-05 17:13:15.872,0.1837730407714844,
424,424,1801,2021-10-05 17:13:15.876,0.0327205657958984,
425,425,1805,2021-10-05 17:13:15.880,-0.2241134643554687,
426,426,1809,2021-10-05 17:13:15.884,-0.6282647450764974,
427,427,1813,2021-10-05 17:13:15.888,-0.9958108266194664,
428,428,1817,2021-10-05 17:13:15.892,-1.198708216349284,
429,429,1821,2021-10-05 17:13:15.896,-1.176446278889974,
430,430,1825,2021-10-05 17:13:15.900,-0.8589522043863933,
431,431,1829,2021-10-05 17:13:15.904,-0.4669030507405599,
432,432,1833,2021-10-05 17:13:15.908,-0.1417891184488932,
433,433,1837,2021-10-05 17:13:15.912,0.071118672688802,
434,434,1841,2021-10-05 17:13:15.916,0.1322269439697266,
435,435,1845,2021-10-05 17:13:15.920,0.1438808441162109,
436,436,1849,2021-10-05 17:13:15.924,0.107723871866862,
437,437,1853,2021-10-05 17:13:15.928,0.056924819946289,
438,438,1857,2021-10-05 17:13:15.932,0.0276406606038411,
439,439,1861,2021-10-05 17:13:15.936,-0.0413862864176432,
440,440,1865,2021-10-05 17:13:15.940,-0.071118672688802,
441,441,1869,2021-10-05 17:13:15.944,-0.1166884104410807,
442,442,1873,2021-10-05 17:13:15.948,-0.1582241058349609,
443,443,1877,2021-10-05 17:13:15.952,-0.1737626393636067,
444,444,1881,2021-10-05 17:13:15.956,-0.2112642923990885,
445,445,1885,2021-10-05 17:13:15.960,-0.2203782399495443,
446,446,1889,2021-10-05 17:13:15.964,-0.2178382873535156,
447,447,1893,2021-10-05 17:13:15.968,-0.236962636311849,
448,448,1897,2021-10-05 17:13:15.972,-0.2238146464029948,
449,449,1901,2021-10-05 17:13:15.976,-0.2444330851236979,
450,450,1905,2021-10-05 17:13:15.980,-0.2501106262207032,
451,451,1909,2021-10-05 17:13:15.984,-0.24383544921875,
452,452,1913,2021-10-05 17:13:15.988,-0.2560869852701823,
453,453,1917,2021-10-05 17:13:15.992,-0.2350203196207682,
454,454,1921,2021-10-05 17:13:15.996,-0.2424907684326172,
455,455,1925,2021-10-05 17:13:16.000,-0.2392037709554036,
456,456,1929,2021-10-05 17:13:16.004,-0.243536631266276,
457,457,1933,2021-10-05 17:13:16.008,-0.2643044789632162,
458,458,1937,2021-10-05 17:13:16.012,-0.2342732747395833,
459,459,1941,2021-10-05 17:13:16.016,-0.2253087361653646,
460,460,1945,2021-10-05 17:13:16.020,-0.2040926615397135,
461,461,1949,2021-10-05 17:13:16.024,-0.1952775319417318,
462,462,1953,2021-10-05 17:13:16.028,-0.2176888783772786,
463,463,1957,2021-10-05 17:13:16.032,-0.2114137013753255,
464,464,1961,2021-10-05 17:13:16.036,-0.2306874593098958,
465,465,1965,2021-10-05 17:13:16.040,-0.2232170104980469,
466,466,1969,2021-10-05 17:13:16.044,-0.2111148834228516,
467,467,1973,2021-10-05 17:13:16.048,-0.2232170104980469,
468,468,1977,2021-10-05 17:13:16.052,-0.208276112874349,
469,469,1981,2021-10-05 17:13:16.056,-0.2190335591634115,
470,470,1985,2021-10-05 17:13:16.060,-0.2097702026367187,
471,471,1989,2021-10-05 17:13:16.064,-0.193634033203125,
472,472,1993,2021-10-05 17:13:16.068,-0.2040926615397135,
473,473,1997,2021-10-05 17:13:16.072,-0.193484624226888,
474,474,2001,2021-10-05 17:13:16.076,-0.2172406514485677,
475,475,2005,2021-10-05 17:13:16.080,-0.214850107828776,
476,476,2009,2021-10-05 17:13:16.084,-0.2008056640625,
477,477,2013,2021-10-05 17:13:16.088,-0.2133560180664062,
478,478,2017,2021-10-05 17:13:16.092,-0.1987139383951823,
479,479,2021,2021-10-05 17:13:16.096,-0.2167924245198568,
480,480,2025,2021-10-05 17:13:16.100,-0.2199300130208333,
481,481,2029,2021-10-05 17:13:16.104,-0.2242628733317057,
482,482,2033,2021-10-05 17:13:16.108,-0.2480189005533854,
483,483,2037,2021-10-05 17:13:16.112,-0.2315839131673177,
484,484,2041,2021-10-05 17:13:16.116,-0.251305898030599,
485,485,2045,2021-10-05 17:13:16.120,-0.251455307006836,
486,486,2049,2021-10-05 17:13:16.124,-0.2538458506266276,
487,487,2053,2021-10-05 17:13:16.128,-0.2777512868245443,
488,488,2057,2021-10-05 17:13:16.132,-0.2628103892008464,
489,489,2061,2021-10-05 17:13:16.136,-0.2779006958007813,
490,490,2065,2021-10-05 17:13:16.140,-0.2758089701334635,
491,491,2069,2021-10-05 17:13:16.144,-0.2698326110839844,
492,492,2073,2021-10-05 17:13:16.148,-0.286566416422526,
493,493,2077,2021-10-05 17:13:16.152,-0.265200932820638,
494,494,2081,2021-10-05 17:13:16.156,-0.272820790608724,
495,495,2085,2021-10-05 17:13:16.160,-0.2605692545572917,
496,496,2089,2021-10-05 17:13:16.164,-0.2454789479573568,
497,497,2093,2021-10-05 17:13:16.168,-0.250857671101888,
498,498,2097,2021-10-05 17:13:16.172,-0.2205276489257812,
499,499,2101,2021-10-05 17:13:16.176,-0.2208264668782552,
500,500,2105,2021-10-05 17:13:16.180,-0.200506846110026,
501,501,2109,2021-10-05 17:13:16.184,-0.18646240234375,
502,502,2113,2021-10-05 17:13:16.188,-0.1946798960367838,
503,503,2117,2021-10-05 17:13:16.192,-0.171820322672526,
504,504,2121,2021-10-05 17:13:16.196,-0.179440180460612,
505,505,2125,2021-10-05 17:13:16.200,-0.1621087392171224,
506,506,2129,2021-10-05 17:13:16.204,-0.1500066121419271,
507,507,2133,2021-10-05 17:13:16.208,-0.1770496368408203,
508,508,2137,2021-10-05 17:13:16.212,-0.1731650034586588,
509,509,2141,2021-10-05 17:13:16.216,-0.1928869883219401,
510,510,2145,2021-10-05 17:13:16.220,-0.1930363972981771,
511,511,2149,2021-10-05 17:13:16.224,-0.186163584391276,
512,512,2153,2021-10-05 17:13:16.228,-0.2022997538248698,
513,513,2157,2021-10-05 17:13:16.232,-0.1891517639160156,
514,514,2161,2021-10-05 17:13:16.236,-0.2024491628011068,
515,515,2165,2021-10-05 17:13:16.240,-0.2030467987060547,
516,516,2169,2021-10-05 17:13:16.244,-0.1999092102050781,
517,517,2173,2021-10-05 17:13:16.248,-0.2232170104980469,
518,518,2177,2021-10-05 17:13:16.252,-0.2139536539713541,
519,519,2181,2021-10-05 17:13:16.256,-0.2336756388346354,
520,520,2185,2021-10-05 17:13:16.260,-0.2315839131673177,
521,521,2189,2021-10-05 17:13:16.264,-0.2262051900227865,
522,522,2193,2021-10-05 17:13:16.268,-0.2402496337890625,
523,523,2197,2021-10-05 17:13:16.272,-0.2197806040445963,
524,524,2201,2021-10-05 17:13:16.276,-0.2294921875,
525,525,2205,2021-10-05 17:13:16.280,-0.2206770579020182,
526,526,2209,2021-10-05 17:13:16.284,-0.21514892578125,
527,527,2213,2021-10-05 17:13:16.288,-0.2362155914306641,
528,528,2217,2021-10-05 17:13:16.292,-0.222469965616862,
529,529,2221,2021-10-05 17:13:16.296,-0.2348709106445312,
530,530,2225,2021-10-05 17:13:16.300,-0.2281475067138672,
531,531,2229,2021-10-05 17:13:16.304,-0.2212746938069661,
532,532,2233,2021-10-05 17:13:16.308,-0.2399508158365885,
533,533,2237,2021-10-05 17:13:16.312,-0.2247111002604166,
534,534,2241,2021-10-05 17:13:16.316,-0.2403990427652995,
535,535,2245,2021-10-05 17:13:16.320,-0.2320321400960286,
536,536,2249,2021-10-05 17:13:16.324,-0.21514892578125,
537,537,2253,2021-10-05 17:13:16.328,-0.2211252848307291,
538,538,2257,2021-10-05 17:13:16.332,-0.2052879333496094,
539,539,2261,2021-10-05 17:13:16.336,-0.2312850952148437,
540,540,2265,2021-10-05 17:13:16.340,-0.236365000406901,
541,541,2269,2021-10-05 17:13:16.344,-0.2274004618326823,
542,542,2273,2021-10-05 17:13:16.348,-0.2386061350504557,
543,543,2277,2021-10-05 17:13:16.352,-0.2203782399495443,
544,544,2281,2021-10-05 17:13:16.356,-0.2318827311197916,
545,545,2285,2021-10-05 17:13:16.360,-0.2271016438802083,
546,546,2289,2021-10-05 17:13:16.364,-0.2139536539713541,
547,547,2293,2021-10-05 17:13:16.368,-0.2199300130208333,
548,548,2297,2021-10-05 17:13:16.372,-0.2025985717773437,
549,549,2301,2021-10-05 17:13:16.376,-0.2176888783772786,
550,550,2305,2021-10-05 17:13:16.380,-0.2166430155436198,
551,551,2309,2021-10-05 17:13:16.384,-0.2094713846842448,
552,552,2313,2021-10-05 17:13:16.388,-0.2239640553792318,
553,553,2317,2021-10-05 17:13:16.392,-0.2085749308268229,
554,554,2321,2021-10-05 17:13:16.396,-0.222171147664388,
555,555,2325,2021-10-05 17:13:16.400,-0.2193323771158854,
556,556,2329,2021-10-05 17:13:16.404,-0.2176888783772786,
557,557,2333,2021-10-05 17:13:16.408,-0.2335262298583984,
558,558,2337,2021-10-05 17:13:16.412,-0.2097702026367187,
559,559,2341,2021-10-05 17:13:16.416,-0.2209758758544922,
560,560,2345,2021-10-05 17:13:16.420,-0.2193323771158854,
561,561,2349,2021-10-05 17:13:16.424,-0.2188841501871745,
562,562,2353,2021-10-05 17:13:16.428,-0.2348709106445312,
563,563,2357,2021-10-05 17:13:16.432,-0.2123101552327474,
564,564,2361,2021-10-05 17:13:16.436,-0.2178382873535156,
565,565,2365,2021-10-05 17:13:16.440,-0.207827885945638,
566,566,2369,2021-10-05 17:13:16.444,-0.2090231577555338,
567,567,2373,2021-10-05 17:13:16.448,-0.236365000406901,
568,568,2377,2021-10-05 17:13:16.452,-0.2199300130208333,
569,569,2381,2021-10-05 17:13:16.456,-0.2272510528564453,
570,570,2385,2021-10-05 17:13:16.460,-0.2176888783772786,
571,571,2389,2021-10-05 17:13:16.464,-0.2091725667317708,
572,572,2393,2021-10-05 17:13:16.468,-0.2232170104980469,
573,573,2397,2021-10-05 17:13:16.472,-0.2064832051595052,
574,574,2401,2021-10-05 17:13:16.476,-0.2265040079752604,
575,575,2405,2021-10-05 17:13:16.480,-0.2193323771158854,
576,576,2409,2021-10-05 17:13:16.484,-0.2087243398030599,
577,577,2413,2021-10-05 17:13:16.488,-0.2268028259277344,
578,578,2417,2021-10-05 17:13:16.492,-0.2163441975911458,
579,579,2421,2021-10-05 17:13:16.496,-0.2354685465494791,
580,580,2425,2021-10-05 17:13:16.500,-0.2263545989990234,
581,581,2429,2021-10-05 17:13:16.504,-0.2182865142822266,
582,582,2433,2021-10-05 17:13:16.508,-0.2329285939534505,
583,583,2437,2021-10-05 17:13:16.512,-0.2070808410644531,
584,584,2441,2021-10-05 17:13:16.516,-0.2142524719238281,
585,585,2445,2021-10-05 17:13:16.520,-0.2185853322347005,
586,586,2449,2021-10-05 17:13:16.524,-0.2200794219970703,
587,587,2453,2021-10-05 17:13:16.528,-0.236962636311849,
588,588,2457,2021-10-05 17:13:16.532,-0.2057361602783203,
589,589,2461,2021-10-05 17:13:16.536,-0.2132066090901693,
590,590,2465,2021-10-05 17:13:16.540,-0.2194817860921224,
591,591,2469,2021-10-05 17:13:16.544,-0.2196311950683594,
592,592,2473,2021-10-05 17:13:16.548,-0.2374108632405599,
593,593,2477,2021-10-05 17:13:16.552,-0.214999516805013,
594,594,2481,2021-10-05 17:13:16.556,-0.2276992797851562,
595,595,2485,2021-10-05 17:13:16.560,-0.2218723297119141,
596,596,2489,2021-10-05 17:13:16.564,-0.2108160654703776,
597,597,2493,2021-10-05 17:13:16.568,-0.2265040079752604,
598,598,2497,2021-10-05 17:13:16.572,-0.2126089731852213,
599,599,2501,2021-10-05 17:13:16.576,-0.2265040079752604,
600,600,2505,2021-10-05 17:13:16.580,-0.214999516805013,
601,601,2509,2021-10-05 17:13:16.584,-0.2121607462565104,
602,602,2513,2021-10-05 17:13:16.588,-0.2380084991455078,
603,603,2517,2021-10-05 17:13:16.592,-0.2233664194742838,
604,604,2521,2021-10-05 17:13:16.596,-0.2284463246663411,
605,605,2525,2021-10-05 17:13:16.600,-0.2103678385416666,
606,606,2529,2021-10-05 17:13:16.604,-0.1942316691080729,
607,607,2533,2021-10-05 17:13:16.608,-0.2135054270426432,
608,608,2537,2021-10-05 17:13:16.612,-0.2106666564941406,
609,609,2541,2021-10-05 17:13:16.616,-0.2351697285970052,
610,610,2545,2021-10-05 17:13:16.620,-0.2326297760009766,
611,611,2549,2021-10-05 17:13:16.624,-0.2247111002604166,
612,612,2553,2021-10-05 17:13:16.628,-0.2327791849772135,
613,613,2557,2021-10-05 17:13:16.632,-0.2100690205891927,
614,614,2561,2021-10-05 17:13:16.636,-0.2230676015218099,
615,615,2565,2021-10-05 17:13:16.640,-0.2145512898763021,
616,616,2569,2021-10-05 17:13:16.644,-0.2043914794921875,
617,617,2573,2021-10-05 17:13:16.648,-0.2305380503336588,
618,618,2577,2021-10-05 17:13:16.652,-0.2263545989990234,
619,619,2581,2021-10-05 17:13:16.656,-0.2453295389811198,
620,620,2585,2021-10-05 17:13:16.660,-0.2299404144287109,
621,621,2589,2021-10-05 17:13:16.664,-0.2034950256347656,
622,622,2593,2021-10-05 17:13:16.668,-0.2114137013753255,
623,623,2597,2021-10-05 17:13:16.672,-0.1958751678466797,
624,624,2601,2021-10-05 17:13:16.676,-0.2187347412109375,
625,625,2605,2021-10-05 17:13:16.680,-0.2254581451416016,
626,626,2609,2021-10-05 17:13:16.684,-0.222021738688151,
627,627,2613,2021-10-05 17:13:16.688,-0.2338250478108724,
628,628,2617,2021-10-05 17:13:16.692,-0.2123101552327474,
629,629,2621,2021-10-05 17:13:16.696,-0.222619374593099,
630,630,2625,2021-10-05 17:13:16.700,-0.2185853322347005,
631,631,2629,2021-10-05 17:13:16.704,-0.2161947886149088,
632,632,2633,2021-10-05 17:13:16.708,-0.2392037709554036,
633,633,2637,2021-10-05 17:13:16.712,-0.2250099182128906,
634,634,2641,2021-10-05 17:13:16.716,-0.2184359232584635,
635,635,2645,2021-10-05 17:13:16.720,-0.1961739857991536,
636,636,2649,2021-10-05 17:13:16.724,-0.1839224497477213,
637,637,2653,2021-10-05 17:13:16.728,-0.2040926615397135,
638,638,2657,2021-10-05 17:13:16.732,-0.1895999908447266,
639,639,2661,2021-10-05 17:13:16.736,-0.2088737487792969,
640,640,2665,2021-10-05 17:13:16.740,-0.2172406514485677,
641,641,2669,2021-10-05 17:13:16.744,-0.2317333221435547,
642,642,2673,2021-10-05 17:13:16.748,-0.2581787109375,
643,643,2677,2021-10-05 17:13:16.752,-0.2372614542643229,
644,644,2681,2021-10-05 17:13:16.756,-0.2478694915771484,
645,645,2685,2021-10-05 17:13:16.760,-0.2405484517415365,
646,646,2689,2021-10-05 17:13:16.764,-0.2339744567871094,Start
647,647,2693,2021-10-05 17:13:16.768,-0.2519035339355469,
648,648,2697,2021-10-05 17:13:16.772,-0.2315839131673177,
649,649,2701,2021-10-05 17:13:16.776,-0.2372614542643229,
650,650,2705,2021-10-05 17:13:16.780,-0.2314345041910807,
651,651,2709,2021-10-05 17:13:16.784,-0.2279980977376302,
652,652,2713,2021-10-05 17:13:16.788,-0.236962636311849,
653,653,2717,2021-10-05 17:13:16.792,-0.2037938435872396,
654,654,2721,2021-10-05 17:13:16.796,-0.2063337961832682,
655,655,2725,2021-10-05 17:13:16.800,-0.1958751678466797,
656,656,2729,2021-10-05 17:13:16.804,-0.1927375793457031,
657,657,2733,2021-10-05 17:13:16.808,-0.2127583821614583,
658,658,2737,2021-10-05 17:13:16.812,-0.1999092102050781,
659,659,2741,2021-10-05 17:13:16.816,-0.2172406514485677,
660,660,2745,2021-10-05 17:13:16.820,-0.2100690205891927,
661,661,2749,2021-10-05 17:13:16.824,-0.2054373423258463,
662,662,2753,2021-10-05 17:13:16.828,-0.2269522349039713,
663,663,2757,2021-10-05 17:13:16.832,-0.2144018809000651,
664,664,2761,2021-10-05 17:13:16.836,-0.2272510528564453,
665,665,2765,2021-10-05 17:13:16.840,-0.2173900604248047,
666,666,2769,2021-10-05 17:13:16.844,-0.2087243398030599,
667,667,2773,2021-10-05 17:13:16.848,-0.2250099182128906,
668,668,2777,2021-10-05 17:13:16.852,-0.2070808410644531,
669,669,2781,2021-10-05 17:13:16.856,-0.2253087361653646,
670,670,2785,2021-10-05 17:13:16.860,-0.2274004618326823,
671,671,2789,2021-10-05 17:13:16.864,-0.2155971527099609,
672,672,2793,2021-10-05 17:13:16.868,-0.2315839131673177,
673,673,2797,2021-10-05 17:13:16.872,-0.2218723297119141,
674,674,2801,2021-10-05 17:13:16.876,-0.2389049530029297,
675,675,2805,2021-10-05 17:13:16.880,-0.2205276489257812,
676,676,2809,2021-10-05 17:13:16.884,-0.1616605122884114,
677,677,2813,2021-10-05 17:13:16.888,-0.078887939453125,
678,678,2817,2021-10-05 17:13:16.892,0.0342146555582682,
679,679,2821,2021-10-05 17:13:16.896,0.0939782460530599,
680,680,2825,2021-10-05 17:13:16.900,0.1495583852132161,
681,681,2829,2021-10-05 17:13:16.904,0.1329739888509114,
682,682,2833,2021-10-05 17:13:16.908,-0.0231583913167317,
683,683,2837,2021-10-05 17:13:16.912,-0.2620633443196615,
684,684,2841,2021-10-05 17:13:16.916,-0.6373786926269532,
685,685,2845,2021-10-05 17:13:16.920,-0.9381389617919924,
686,686,2849,2021-10-05 17:13:16.924,-1.0953172047932944,
687,687,2853,2021-10-05 17:13:16.928,-1.0516897837320964,
688,688,2857,2021-10-05 17:13:16.932,-0.7585493723551433,
689,689,2861,2021-10-05 17:13:16.936,-0.4240226745605469,
690,690,2865,2021-10-05 17:13:16.940,-0.1286411285400391,
691,691,2869,2021-10-05 17:13:16.944,0.0546836853027343,
692,692,2873,2021-10-05 17:13:16.948,0.1110108693440755,
693,693,2877,2021-10-05 17:13:16.952,0.1277446746826172,
694,694,2881,2021-10-05 17:13:16.956,0.085461934407552,
695,695,2885,2021-10-05 17:13:16.960,0.0242042541503906,
696,696,2889,2021-10-05 17:13:16.964,-0.0134468078613281,
697,697,2893,2021-10-05 17:13:16.968,-0.0772444407145182,
698,698,2897,2021-10-05 17:13:16.972,-0.1014486948649088,
699,699,2901,2021-10-05 17:13:16.976,-0.1328245798746745,
700,700,2905,2021-10-05 17:13:16.980,-0.1616605122884114,
701,701,2909,2021-10-05 17:13:16.984,-0.1639016469319661,
702,702,2913,2021-10-05 17:13:16.988,-0.2028973897298177,
703,703,2917,2021-10-05 17:13:16.992,-0.2034950256347656,
704,704,2921,2021-10-05 17:13:16.996,-0.2212746938069661,
705,705,2925,2021-10-05 17:13:17.000,-0.2357673645019531,
706,706,2929,2021-10-05 17:13:17.004,-0.2303886413574219,
707,707,2933,2021-10-05 17:13:17.008,-0.2599716186523438,
708,708,2937,2021-10-05 17:13:17.012,-0.2481683095296224,
709,709,2941,2021-10-05 17:13:17.016,-0.2496623992919922,
710,710,2945,2021-10-05 17:13:17.020,-0.2493635813395182,
711,711,2949,2021-10-05 17:13:17.024,-0.2314345041910807,
712,712,2953,2021-10-05 17:13:17.028,-0.2525011698404948,
713,713,2957,2021-10-05 17:13:17.032,-0.2332274119059245,
714,714,2961,2021-10-05 17:13:17.036,-0.2380084991455078,
715,715,2965,2021-10-05 17:13:17.040,-0.2429389953613281,
716,716,2969,2021-10-05 17:13:17.044,-0.2256075541178385,
717,717,2973,2021-10-05 17:13:17.048,-0.243984858194987,
718,718,2977,2021-10-05 17:13:17.052,-0.2139536539713541,
719,719,2981,2021-10-05 17:13:17.056,-0.2133560180664062,
720,720,2985,2021-10-05 17:13:17.060,-0.2185853322347005,
721,721,2989,2021-10-05 17:13:17.064,-0.200506846110026,
722,722,2993,2021-10-05 17:13:17.068,-0.2229181925455729,
723,723,2997,2021-10-05 17:13:17.072,-0.2136548360188802,
724,724,3001,2021-10-05 17:13:17.076,-0.2229181925455729,
725,725,3005,2021-10-05 17:13:17.080,-0.229791005452474,
726,726,3009,2021-10-05 17:13:17.084,-0.2133560180664062,
727,727,3013,2021-10-05 17:13:17.088,-0.2257569630940755,
728,728,3017,2021-10-05 17:13:17.092,-0.2069314320882161,
729,729,3021,2021-10-05 17:13:17.096,-0.214850107828776,
730,730,3025,2021-10-05 17:13:17.100,-0.2169418334960937,
731,731,3029,2021-10-05 17:13:17.104,-0.1975186665852865,
732,732,3033,2021-10-05 17:13:17.108,-0.2217229207356771,
733,733,3037,2021-10-05 17:13:17.112,-0.2027479807535807,
734,734,3041,2021-10-05 17:13:17.116,-0.2033456166585286,
735,735,3045,2021-10-05 17:13:17.120,-0.2030467987060547,
736,736,3049,2021-10-05 17:13:17.124,-0.1879564921061198,
737,737,3053,2021-10-05 17:13:17.128,-0.2184359232584635,
738,738,3057,2021-10-05 17:13:17.132,-0.2087243398030599,
739,739,3061,2021-10-05 17:13:17.136,-0.2203782399495443,
740,740,3065,2021-10-05 17:13:17.140,-0.2344226837158203,
741,741,3069,2021-10-05 17:13:17.144,-0.2312850952148437,
742,742,3073,2021-10-05 17:13:17.148,-0.2663962046305339,
743,743,3077,2021-10-05 17:13:17.152,-0.2545928955078125,
744,744,3081,2021-10-05 17:13:17.156,-0.2643044789632162,
745,745,3085,2021-10-05 17:13:17.160,-0.2608680725097657,
746,746,3089,2021-10-05 17:13:17.164,-0.236663818359375,
747,747,3093,2021-10-05 17:13:17.168,-0.2622127532958985,
748,748,3097,2021-10-05 17:13:17.172,-0.2551905314127604,
749,749,3101,2021-10-05 17:13:17.176,-0.2732690175374349,
750,750,3105,2021-10-05 17:13:17.180,-0.280141830444336,
751,751,3109,2021-10-05 17:13:17.184,-0.2608680725097657,
752,752,3113,2021-10-05 17:13:17.188,-0.280141830444336,
753,753,3117,2021-10-05 17:13:17.192,-0.2571328481038412,
754,754,3121,2021-10-05 17:13:17.196,-0.2553399403889974,
755,755,3125,2021-10-05 17:13:17.200,-0.2522023518880208,
756,756,3129,2021-10-05 17:13:17.204,-0.2272510528564453,
757,757,3133,2021-10-05 17:13:17.208,-0.2402496337890625,
758,758,3137,2021-10-05 17:13:17.212,-0.2117125193277995,
759,759,3141,2021-10-05 17:13:17.216,-0.2020009358723958,
760,760,3145,2021-10-05 17:13:17.220,-0.193783442179362,
761,761,3149,2021-10-05 17:13:17.224,-0.164648691813151,
762,762,3153,2021-10-05 17:13:17.228,-0.1754061381022135,
763,763,3157,2021-10-05 17:13:17.232,-0.1589711507161458,
764,764,3161,2021-10-05 17:13:17.236,-0.1615111033121745,
765,765,3165,2021-10-05 17:13:17.240,-0.1630051930745442,
766,766,3169,2021-10-05 17:13:17.244,-0.1500066121419271,
767,767,3173,2021-10-05 17:13:17.248,-0.1830259958902995,
768,768,3177,2021-10-05 17:13:17.252,-0.1806354522705078,
769,769,3181,2021-10-05 17:13:17.256,-0.1996103922526041,
770,770,3185,2021-10-05 17:13:17.260,-0.2102184295654297,
771,771,3189,2021-10-05 17:13:17.264,-0.1891517639160156,
772,772,3193,2021-10-05 17:13:17.268,-0.2142524719238281,
773,773,3197,2021-10-05 17:13:17.272,-0.2173900604248047,
774,774,3201,2021-10-05 17:13:17.276,-0.2262051900227865,
775,775,3205,2021-10-05 17:13:17.280,-0.2272510528564453,
776,776,3209,2021-10-05 17:13:17.284,-0.2028973897298177,
777,777,3213,2021-10-05 17:13:17.288,-0.222171147664388,
778,778,3217,2021-10-05 17:13:17.292,-0.2085749308268229,
779,779,3221,2021-10-05 17:13:17.296,-0.2254581451416016,
780,780,3225,2021-10-05 17:13:17.300,-0.2360661824544271,
781,781,3229,2021-10-05 17:13:17.304,-0.2250099182128906,
782,782,3233,2021-10-05 17:13:17.308,-0.2468236287434896,
783,783,3237,2021-10-05 17:13:17.312,-0.2265040079752604,
784,784,3241,2021-10-05 17:13:17.316,-0.2305380503336588,
785,785,3245,2021-10-05 17:13:17.320,-0.2378590901692708,
786,786,3249,2021-10-05 17:13:17.324,-0.2160453796386719,
787,787,3253,2021-10-05 17:13:17.328,-0.2265040079752604,
788,788,3257,2021-10-05 17:13:17.332,-0.2115631103515625,
789,789,3261,2021-10-05 17:13:17.336,-0.2238146464029948,
790,790,3265,2021-10-05 17:13:17.340,-0.2418931325276693,
791,791,3269,2021-10-05 17:13:17.344,-0.2285957336425781,
792,792,3273,2021-10-05 17:13:17.348,-0.2469730377197266,
793,793,3277,2021-10-05 17:13:17.352,-0.2272510528564453,
794,794,3281,2021-10-05 17:13:17.356,-0.2239640553792318,
795,795,3285,2021-10-05 17:13:17.360,-0.222619374593099,
796,796,3289,2021-10-05 17:13:17.364,-0.2105172475179036,
797,797,3293,2021-10-05 17:13:17.368,-0.236365000406901,
798,798,3297,2021-10-05 17:13:17.372,-0.2227687835693359,
799,799,3301,2021-10-05 17:13:17.376,-0.2311356862386068,
800,800,3305,2021-10-05 17:13:17.380,-0.2320321400960286,
801,801,3309,2021-10-05 17:13:17.384,-0.2105172475179036,
802,802,3313,2021-10-05 17:13:17.388,-0.2262051900227865,
803,803,3317,2021-10-05 17:13:17.392,-0.2052879333496094,
804,804,3321,2021-10-05 17:13:17.396,-0.214850107828776,
805,805,3325,2021-10-05 17:13:17.400,-0.2244122823079427,
806,806,3329,2021-10-05 17:13:17.404,-0.2064832051595052,
807,807,3333,2021-10-05 17:13:17.408,-0.2253087361653646,
808,808,3337,2021-10-05 17:13:17.412,-0.2105172475179036,
809,809,3341,2021-10-05 17:13:17.416,-0.2191829681396484,
810,810,3345,2021-10-05 17:13:17.420,-0.222469965616862,
811,811,3349,2021-10-05 17:13:17.424,-0.2025985717773437,
812,812,3353,2021-10-05 17:13:17.428,-0.2179876963297526,
813,813,3357,2021-10-05 17:13:17.432,-0.2075290679931641,
814,814,3361,2021-10-05 17:13:17.436,-0.2245616912841797,
815,815,3365,2021-10-05 17:13:17.440,-0.2341238657633463,
816,816,3369,2021-10-05 17:13:17.444,-0.2120113372802734,
817,817,3373,2021-10-05 17:13:17.448,-0.2256075541178385,
818,818,3377,2021-10-05 17:13:17.452,-0.2072302500406901,
819,819,3381,2021-10-05 17:13:17.456,-0.2173900604248047,
820,820,3385,2021-10-05 17:13:17.460,-0.2206770579020182,
821,821,3389,2021-10-05 17:13:17.464,-0.2067820231119791,
822,822,3393,2021-10-05 17:13:17.468,-0.2321815490722656,
823,823,3397,2021-10-05 17:13:17.472,-0.2187347412109375,
824,824,3401,2021-10-05 17:13:17.476,-0.2271016438802083,
825,825,3405,2021-10-05 17:13:17.480,-0.2333768208821615,
826,826,3409,2021-10-05 17:13:17.484,-0.2185853322347005,
827,827,3413,2021-10-05 17:13:17.488,-0.236365000406901,
828,828,3417,2021-10-05 17:13:17.492,-0.2158959706624349,
829,829,3421,2021-10-05 17:13:17.496,-0.2253087361653646,
830,830,3425,2021-10-05 17:13:17.500,-0.2312850952148437,
831,831,3429,2021-10-05 17:13:17.504,-0.2129077911376953,
832,832,3433,2021-10-05 17:13:17.508,-0.2288945515950521,
833,833,3437,2021-10-05 17:13:17.512,-0.2091725667317708,
834,834,3441,2021-10-05 17:13:17.516,-0.2190335591634115,
835,835,3445,2021-10-05 17:13:17.520,-0.229193369547526,
836,836,3449,2021-10-05 17:13:17.524,-0.2103678385416666,
837,837,3453,2021-10-05 17:13:17.528,-0.2263545989990234,
838,838,3457,2021-10-05 17:13:17.532,-0.2091725667317708,
839,839,3461,2021-10-05 17:13:17.536,-0.2099196116129557,
840,840,3465,2021-10-05 17:13:17.540,-0.215447743733724,
841,841,3469,2021-10-05 17:13:17.544,-0.2063337961832682,
842,842,3473,2021-10-05 17:13:17.548,-0.2362155914306641,
843,843,3477,2021-10-05 17:13:17.552,-0.2269522349039713,
844,844,3481,2021-10-05 17:13:17.556,-0.2333768208821615,
845,845,3485,2021-10-05 17:13:17.560,-0.2339744567871094,
846,846,3489,2021-10-05 17:13:17.564,-0.2124595642089844,
847,847,3493,2021-10-05 17:13:17.568,-0.2276992797851562,
848,848,3497,2021-10-05 17:13:17.572,-0.2049891153971354,
849,849,3501,2021-10-05 17:13:17.576,-0.2085749308268229,
850,850,3505,2021-10-05 17:13:17.580,-0.214850107828776,
851,851,3509,2021-10-05 17:13:17.584,-0.2024491628011068,
852,852,3513,2021-10-05 17:13:17.588,-0.2309862772623698,
853,853,3517,2021-10-05 17:13:17.592,-0.2167924245198568,
854,854,3521,2021-10-05 17:13:17.596,-0.2244122823079427,
855,855,3525,2021-10-05 17:13:17.600,-0.229791005452474,
856,856,3529,2021-10-05 17:13:17.604,-0.2130572001139323,
857,857,3533,2021-10-05 17:13:17.608,-0.2302392323811849,
858,858,3537,2021-10-05 17:13:17.612,-0.2124595642089844,
859,859,3541,2021-10-05 17:13:17.616,-0.2217229207356771,
860,860,3545,2021-10-05 17:13:17.620,-0.2245616912841797,
861,861,3549,2021-10-05 17:13:17.624,-0.2037938435872396,
862,862,3553,2021-10-05 17:13:17.628,-0.2232170104980469,
863,863,3557,2021-10-05 17:13:17.632,-0.2090231577555338,
864,864,3561,2021-10-05 17:13:17.636,-0.2218723297119141,
865,865,3565,2021-10-05 17:13:17.640,-0.2309862772623698,
866,866,3569,2021-10-05 17:13:17.644,-0.2208264668782552,
867,867,3573,2021-10-05 17:13:17.648,-0.2405484517415365,
868,868,3577,2021-10-05 17:13:17.652,-0.2208264668782552,
869,869,3581,2021-10-05 17:13:17.656,-0.2274004618326823,
870,870,3585,2021-10-05 17:13:17.660,-0.2279980977376302,
871,871,3589,2021-10-05 17:13:17.664,-0.2103678385416666,
872,872,3593,2021-10-05 17:13:17.668,-0.2303886413574219,
873,873,3597,2021-10-05 17:13:17.672,-0.2114137013753255,
874,874,3601,2021-10-05 17:13:17.676,-0.214999516805013,
875,875,3605,2021-10-05 17:13:17.680,-0.2209758758544922,
876,876,3609,2021-10-05 17:13:17.684,-0.2024491628011068,
877,877,3613,2021-10-05 17:13:17.688,-0.2120113372802734,
878,878,3617,2021-10-05 17:13:17.692,-0.18646240234375,
879,879,3621,2021-10-05 17:13:17.696,-0.1901976267496745,
880,880,3625,2021-10-05 17:13:17.700,-0.2033456166585286,
881,881,3629,2021-10-05 17:13:17.704,-0.1931858062744141,
882,882,3633,2021-10-05 17:13:17.708,-0.2263545989990234,
883,883,3637,2021-10-05 17:13:17.712,-0.2287451426188151,
884,884,3641,2021-10-05 17:13:17.716,-0.2489153544108073,
885,885,3645,2021-10-05 17:13:17.720,-0.2545928955078125,
886,886,3649,2021-10-05 17:13:17.724,-0.2335262298583984,
887,887,3653,2021-10-05 17:13:17.728,-0.2589257558186849,
888,888,3657,2021-10-05 17:13:17.732,-0.2462259928385416,
889,889,3661,2021-10-05 17:13:17.736,-0.2480189005533854,
890,890,3665,2021-10-05 17:13:17.740,-0.2469730377197266,
891,891,3669,2021-10-05 17:13:17.744,-0.2308368682861328,
892,892,3673,2021-10-05 17:13:17.748,-0.2396519978841146,
893,893,3677,2021-10-05 17:13:17.752,-0.2061843872070312,
894,894,3681,2021-10-05 17:13:17.756,-0.2061843872070312,
895,895,3685,2021-10-05 17:13:17.760,-0.2126089731852213,
896,896,3689,2021-10-05 17:13:17.764,-0.1976680755615234,
897,897,3693,2021-10-05 17:13:17.768,-0.2188841501871745,
898,898,3697,2021-10-05 17:13:17.772,-0.200656255086263,
899,899,3701,2021-10-05 17:13:17.776,-0.2033456166585286,
900,900,3705,2021-10-05 17:13:17.780,-0.2135054270426432,
901,901,3709,2021-10-05 17:13:17.784,-0.1984151204427083,
902,902,3713,2021-10-05 17:13:17.788,-0.222171147664388,
903,903,3717,2021-10-05 17:13:17.792,-0.2054373423258463,
904,904,3721,2021-10-05 17:13:17.796,-0.2136548360188802,
905,905,3725,2021-10-05 17:13:17.800,-0.2229181925455729,
906,906,3729,2021-10-05 17:13:17.804,-0.2100690205891927,
907,907,3733,2021-10-05 17:13:17.808,-0.2342732747395833,
908,908,3737,2021-10-05 17:13:17.812,-0.222320556640625,
909,909,3741,2021-10-05 17:13:17.816,-0.2271016438802083,
910,910,3745,2021-10-05 17:13:17.820,-0.2241134643554687,
911,911,3749,2021-10-05 17:13:17.824,-0.1973692576090495,
912,912,3753,2021-10-05 17:13:17.828,-0.2163441975911458,
913,913,3757,2021-10-05 17:13:17.832,-0.2088737487792969,
914,914,3761,2021-10-05 17:13:17.836,-0.2356179555257161,
915,915,3765,2021-10-05 17:13:17.840,-0.2542940775553385,
916,916,3769,2021-10-05 17:13:17.844,-0.2300898234049479,
917,917,3773,2021-10-05 17:13:17.848,-0.2066326141357422,
918,918,3777,2021-10-05 17:13:17.852,-0.1126543680826823,
919,919,3781,2021-10-05 17:13:17.856,-0.0239054361979166,
920,920,3785,2021-10-05 17:13:17.860,0.0579706827799479,
921,921,3789,2021-10-05 17:13:17.864,0.1440302530924479,
922,922,3793,2021-10-05 17:13:17.868,0.1311810811360677,
923,923,3797,2021-10-05 17:13:17.872,0.0515460968017578,
924,924,3801,2021-10-05 17:13:17.876,-0.1642004648844401,
925,925,3805,2021-10-05 17:13:17.880,-0.4775110880533855,
926,926,3809,2021-10-05 17:13:17.884,-0.7781219482421876,
927,927,3813,2021-10-05 17:13:17.888,-1.0280831654866538,
928,928,3817,2021-10-05 17:13:17.892,-1.055126190185547,
929,929,3821,2021-10-05 17:13:17.896,-0.8665720621744792,
930,930,3825,2021-10-05 17:13:17.900,-0.5532614390055339,
931,931,3829,2021-10-05 17:13:17.904,-0.2233664194742838,
932,932,3833,2021-10-05 17:13:17.908,-0.0274912516276041,
933,933,3837,2021-10-05 17:13:17.912,0.0960699717203776,
934,934,3841,2021-10-05 17:13:17.916,0.1160907745361328,
935,935,3845,2021-10-05 17:13:17.920,0.0851631164550781,
936,936,3849,2021-10-05 17:13:17.924,0.0587177276611328,
937,937,3853,2021-10-05 17:13:17.928,-0.0129985809326171,
938,938,3857,2021-10-05 17:13:17.932,-0.0488567352294921,
939,939,3861,2021-10-05 17:13:17.936,-0.0953229268391927,
940,940,3865,2021-10-05 17:13:17.940,-0.1323763529459635,
941,941,3869,2021-10-05 17:13:17.944,-0.1447772979736328,
942,942,3873,2021-10-05 17:13:17.948,-0.1851177215576172,
943,943,3877,2021-10-05 17:13:17.952,-0.1945304870605469,
944,944,3881,2021-10-05 17:13:17.956,-0.2039432525634766,
945,945,3885,2021-10-05 17:13:17.960,-0.236962636311849,
946,946,3889,2021-10-05 17:13:17.964,-0.2285957336425781,
947,947,3893,2021-10-05 17:13:17.968,-0.2427895863850911,
948,948,3897,2021-10-05 17:13:17.972,-0.2354685465494791,
949,949,3901,2021-10-05 17:13:17.976,-0.236514409383138,
950,950,3905,2021-10-05 17:13:17.980,-0.2635574340820313,
951,951,3909,2021-10-05 17:13:17.984,-0.2448813120524088,
952,952,3913,2021-10-05 17:13:17.988,-0.2520529429117839,
953,953,3917,2021-10-05 17:13:17.992,-0.2386061350504557,
954,954,3921,2021-10-05 17:13:17.996,-0.2251593271891276,
955,955,3925,2021-10-05 17:13:18.000,-0.2402496337890625,
956,956,3929,2021-10-05 17:13:18.004,-0.2227687835693359,
957,957,3933,2021-10-05 17:13:18.008,-0.2311356862386068,
958,958,3937,2021-10-05 17:13:18.012,-0.2208264668782552,
959,959,3941,2021-10-05 17:13:18.016,-0.2169418334960937,
960,960,3945,2021-10-05 17:13:18.020,-0.2398014068603516,
961,961,3949,2021-10-05 17:13:18.024,-0.2227687835693359,
962,962,3953,2021-10-05 17:13:18.028,-0.2302392323811849,
963,963,3957,2021-10-05 17:13:18.032,-0.2196311950683594,
964,964,3961,2021-10-05 17:13:18.036,-0.2054373423258463,
965,965,3965,2021-10-05 17:13:18.040,-0.2230676015218099,
966,966,3969,2021-10-05 17:13:18.044,-0.207977294921875,
967,967,3973,2021-10-05 17:13:18.048,-0.2279980977376302,
968,968,3977,2021-10-05 17:13:18.052,-0.2139536539713541,
969,969,3981,2021-10-05 17:13:18.056,-0.2002080281575521,
970,970,3985,2021-10-05 17:13:18.060,-0.2135054270426432,
971,971,3989,2021-10-05 17:13:18.064,-0.1955763498942057,
972,972,3993,2021-10-05 17:13:18.068,-0.2157465616861979,
973,973,3997,2021-10-05 17:13:18.072,-0.2135054270426432,
974,974,4001,2021-10-05 17:13:18.076,-0.2091725667317708,
975,975,4005,2021-10-05 17:13:18.080,-0.2242628733317057,
976,976,4009,2021-10-05 17:13:18.084,-0.2055867513020833,
977,977,4013,2021-10-05 17:13:18.088,-0.2185853322347005,
978,978,4017,2021-10-05 17:13:18.092,-0.2048397064208984,
979,979,4021,2021-10-05 17:13:18.096,-0.1966222127278646,
980,980,4025,2021-10-05 17:13:18.100,-0.2260557810465495,
981,981,4029,2021-10-05 17:13:18.104,-0.222469965616862,
982,982,4033,2021-10-05 17:13:18.108,-0.2489153544108073,
983,983,4037,2021-10-05 17:13:18.112,-0.2453295389811198,
984,984,4041,2021-10-05 17:13:18.116,-0.2417437235514323,
985,985,4045,2021-10-05 17:13:18.120,-0.2605692545572917,
986,986,4049,2021-10-05 17:13:18.124,-0.2395025889078776,
987,987,4053,2021-10-05 17:13:18.128,-0.2559375762939453,
988,988,4057,2021-10-05 17:13:18.132,-0.2495129903157552,
989,989,4061,2021-10-05 17:13:18.136,-0.2504094441731771,
990,990,4065,2021-10-05 17:13:18.140,-0.2774524688720703,
991,991,4069,2021-10-05 17:13:18.144,-0.2704302469889323,
992,992,4073,2021-10-05 17:13:18.148,-0.2946345011393229,
993,993,4077,2021-10-05 17:13:18.152,-0.2814865112304688,
994,994,4081,2021-10-05 17:13:18.156,-0.2563858032226563,
995,995,4085,2021-10-05 17:13:18.160,-0.2557881673177083,
996,996,4089,2021-10-05 17:13:18.164,-0.2276992797851562,
997,997,4093,2021-10-05 17:13:18.168,-0.2348709106445312,
998,998,4097,2021-10-05 17:13:18.172,-0.2139536539713541,
999,999,4101,2021-10-05 17:13:18.176,-0.1958751678466797,
1000,1000,4105,2021-10-05 17:13:18.180,-0.2067820231119791,
1001,1001,4109,2021-10-05 17:13:18.184,-0.1771990458170573,
1002,1002,4113,2021-10-05 17:13:18.188,-0.1831754048665364,
1003,1003,4117,2021-10-05 17:13:18.192,-0.1758543650309245,
1004,1004,4121,2021-10-05 17:13:18.196,-0.1637522379557291,
1005,1005,4125,2021-10-05 17:13:18.200,-0.178991953531901,
1006,1006,4129,2021-10-05 17:13:18.204,-0.1728661855061849,
1007,1007,4133,2021-10-05 17:13:18.208,-0.1931858062744141,
1008,1008,4137,2021-10-05 17:13:18.212,-0.1890023549397786,
1009,1009,4141,2021-10-05 17:13:18.216,-0.1815319061279297,
1010,1010,4145,2021-10-05 17:13:18.220,-0.1960245768229166,
1011,1011,4149,2021-10-05 17:13:18.224,-0.1819801330566406,
1012,1012,4153,2021-10-05 17:13:18.228,-0.2037938435872396,
1013,1013,4157,2021-10-05 17:13:18.232,-0.2055867513020833,
1014,1014,4161,2021-10-05 17:13:18.236,-0.208276112874349,
1015,1015,4165,2021-10-05 17:13:18.240,-0.2327791849772135,
1016,1016,4169,2021-10-05 17:13:18.244,-0.2167924245198568,
1017,1017,4173,2021-10-05 17:13:18.248,-0.2308368682861328,
1018,1018,4177,2021-10-05 17:13:18.252,-0.2209758758544922,
1019,1019,4181,2021-10-05 17:13:18.256,-0.2112642923990885,
1020,1020,4185,2021-10-05 17:13:18.260,-0.2320321400960286,
1021,1021,4189,2021-10-05 17:13:18.264,-0.2203782399495443,
1022,1022,4193,2021-10-05 17:13:18.268,-0.2392037709554036,
1023,1023,4197,2021-10-05 17:13:18.272,-0.2305380503336588,
1024,1024,4201,2021-10-05 17:13:18.276,-0.2193323771158854,
1025,1025,4205,2021-10-05 17:13:18.280,-0.2327791849772135,
1026,1026,4209,2021-10-05 17:13:18.284,-0.2138042449951172,
1027,1027,4213,2021-10-05 17:13:18.288,-0.2333768208821615,
1028,1028,4217,2021-10-05 17:13:18.292,-0.2300898234049479,
1029,1029,4221,2021-10-05 17:13:18.296,-0.222021738688151,
1030,1030,4225,2021-10-05 17:13:18.300,-0.2350203196207682,
1031,1031,4229,2021-10-05 17:13:18.304,-0.2173900604248047,
1032,1032,4233,2021-10-05 17:13:18.308,-0.2374108632405599,
1033,1033,4237,2021-10-05 17:13:18.312,-0.2383073170979818,
1034,1034,4241,2021-10-05 17:13:18.316,-0.2314345041910807,
1035,1035,4245,2021-10-05 17:13:18.320,-0.236514409383138,
1036,1036,4249,2021-10-05 17:13:18.324,-0.208126703898112,
1037,1037,4253,2021-10-05 17:13:18.328,-0.2211252848307291,
1038,1038,4257,2021-10-05 17:13:18.332,-0.2145512898763021,
1039,1039,4261,2021-10-05 17:13:18.336,-0.2087243398030599,
1040,1040,4265,2021-10-05 17:13:18.340,-0.229641596476237,
1041,1041,4269,2021-10-05 17:13:18.344,-0.2147006988525391,
1042,1042,4273,2021-10-05 17:13:18.348,-0.2308368682861328,
1043,1043,4277,2021-10-05 17:13:18.352,-0.2206770579020182,
1044,1044,4281,2021-10-05 17:13:18.356,-0.2094713846842448,
1045,1045,4285,2021-10-05 17:13:18.360,-0.2250099182128906,
1046,1046,4289,2021-10-05 17:13:18.364,-0.2057361602783203,
1047,1047,4293,2021-10-05 17:13:18.368,-0.2197806040445963,
1048,1048,4297,2021-10-05 17:13:18.372,-0.222021738688151,
1049,1049,4301,2021-10-05 17:13:18.376,-0.2157465616861979,
1050,1050,4305,2021-10-05 17:13:18.380,-0.2318827311197916,
1051,1051,4309,2021-10-05 17:13:18.384,-0.2136548360188802,
1052,1052,4313,2021-10-05 17:13:18.388,-0.2251593271891276,
1053,1053,4317,2021-10-05 17:13:18.392,-0.2158959706624349,
1054,1054,4321,2021-10-05 17:13:18.396,-0.2042420705159505,
1055,1055,4325,2021-10-05 17:13:18.400,-0.2248605092366536,
1056,1056,4329,2021-10-05 17:13:18.404,-0.2112642923990885,
1057,1057,4333,2021-10-05 17:13:18.408,-0.2257569630940755,
1058,1058,4337,2021-10-05 17:13:18.412,-0.2187347412109375,
1059,1059,4341,2021-10-05 17:13:18.416,-0.2091725667317708,
1060,1060,4345,2021-10-05 17:13:18.420,-0.2329285939534505,
1061,1061,4349,2021-10-05 17:13:18.424,-0.2167924245198568,
1062,1062,4353,2021-10-05 17:13:18.428,-0.2282969156901041,
1063,1063,4357,2021-10-05 17:13:18.432,-0.2142524719238281,
1064,1064,4361,2021-10-05 17:13:18.436,-0.2069314320882161,
1065,1065,4365,2021-10-05 17:13:18.440,-0.2271016438802083,
1066,1066,4369,2021-10-05 17:13:18.444,-0.2102184295654297,
1067,1067,4373,2021-10-05 17:13:18.448,-0.2229181925455729,
1068,1068,4377,2021-10-05 17:13:18.452,-0.2112642923990885,
1069,1069,4381,2021-10-05 17:13:18.456,-0.2060349782307943,
1070,1070,4385,2021-10-05 17:13:18.460,-0.2345720926920573,
1071,1071,4389,2021-10-05 17:13:18.464,-0.2202288309733073,
1072,1072,4393,2021-10-05 17:13:18.468,-0.2359167734781901,
1073,1073,4397,2021-10-05 17:13:18.472,-0.2269522349039713,
1074,1074,4401,2021-10-05 17:13:18.476,-0.208276112874349,
1075,1075,4405,2021-10-05 17:13:18.480,-0.222469965616862,
1076,1076,4409,2021-10-05 17:13:18.484,-0.2067820231119791,
1077,1077,4413,2021-10-05 17:13:18.488,-0.2232170104980469,
1078,1078,4417,2021-10-05 17:13:18.492,-0.2233664194742838,
1079,1079,4421,2021-10-05 17:13:18.496,-0.2190335591634115,
1080,1080,4425,2021-10-05 17:13:18.500,-0.2306874593098958,
1081,1081,4429,2021-10-05 17:13:18.504,-0.2087243398030599,
1082,1082,4433,2021-10-05 17:13:18.508,-0.2282969156901041,
1083,1083,4437,2021-10-05 17:13:18.512,-0.2253087361653646,
1084,1084,4441,2021-10-05 17:13:18.516,-0.2157465616861979,
1085,1085,4445,2021-10-05 17:13:18.520,-0.229791005452474,
1086,1086,4449,2021-10-05 17:13:18.524,-0.2117125193277995,
1087,1087,4453,2021-10-05 17:13:18.528,-0.2314345041910807,
1088,1088,4457,2021-10-05 17:13:18.532,-0.2254581451416016,
1089,1089,4461,2021-10-05 17:13:18.536,-0.2142524719238281,
1090,1090,4465,2021-10-05 17:13:18.540,-0.2332274119059245,
1091,1091,4469,2021-10-05 17:13:18.544,-0.2181371053059896,
1092,1092,4473,2021-10-05 17:13:18.548,-0.2308368682861328,
1093,1093,4477,2021-10-05 17:13:18.552,-0.2206770579020182,
1094,1094,4481,2021-10-05 17:13:18.556,-0.2069314320882161,
1095,1095,4485,2021-10-05 17:13:18.560,-0.2164936065673828,
1096,1096,4489,2021-10-05 17:13:18.564,-0.200955073038737,
1097,1097,4493,2021-10-05 17:13:18.568,-0.222619374593099,
1098,1098,4497,2021-10-05 17:13:18.572,-0.2229181925455729,
1099,1099,4501,2021-10-05 17:13:18.576,-0.2172406514485677,
1100,1100,4505,2021-10-05 17:13:18.580,-0.2306874593098958,
1101,1101,4509,2021-10-05 17:13:18.584,-0.2126089731852213,
1102,1102,4513,2021-10-05 17:13:18.588,-0.2184359232584635,
1103,1103,4517,2021-10-05 17:13:18.592,-0.1952775319417318,
1104,1104,4521,2021-10-05 17:13:18.596,-0.1783943176269531,
1105,1105,4525,2021-10-05 17:13:18.600,-0.200955073038737,
1106,1106,4529,2021-10-05 17:13:18.604,-0.1943810780843099,
1107,1107,4533,2021-10-05 17:13:18.608,-0.229641596476237,
1108,1108,4537,2021-10-05 17:13:18.612,-0.2378590901692708,
1109,1109,4541,2021-10-05 17:13:18.616,-0.2306874593098958,
1110,1110,4545,2021-10-05 17:13:18.620,-0.2451801300048828,
1111,1111,4549,2021-10-05 17:13:18.624,-0.2342732747395833,
1112,1112,4553,2021-10-05 17:13:18.628,-0.2598222096761068,
1113,1113,4557,2021-10-05 17:13:18.632,-0.2526505788167318,
1114,1114,4561,2021-10-05 17:13:18.636,-0.2417437235514323,
1115,1115,4565,2021-10-05 17:13:18.640,-0.2556387583414714,
1116,1116,4569,2021-10-05 17:13:18.644,-0.2278486887613932,
1117,1117,4573,2021-10-05 17:13:18.648,-0.2347215016682943,
1118,1118,4577,2021-10-05 17:13:18.652,-0.222320556640625,
1119,1119,4581,2021-10-05 17:13:18.656,-0.2064832051595052,
1120,1120,4585,2021-10-05 17:13:18.660,-0.222171147664388,
1121,1121,4589,2021-10-05 17:13:18.664,-0.2055867513020833,
1122,1122,4593,2021-10-05 17:13:18.668,-0.2169418334960937,
1123,1123,4597,2021-10-05 17:13:18.672,-0.2087243398030599,
1124,1124,4601,2021-10-05 17:13:18.676,-0.2015527089436849,
1125,1125,4605,2021-10-05 17:13:18.680,-0.2178382873535156,
1126,1126,4609,2021-10-05 17:13:18.684,-0.1963233947753906,
1127,1127,4613,2021-10-05 17:13:18.688,-0.2075290679931641,
1128,1128,4617,2021-10-05 17:13:18.692,-0.2034950256347656,
1129,1129,4621,2021-10-05 17:13:18.696,-0.2070808410644531,
1130,1130,4625,2021-10-05 17:13:18.700,-0.2299404144287109,
1131,1131,4629,2021-10-05 17:13:18.704,-0.2132066090901693,
1132,1132,4633,2021-10-05 17:13:18.708,-0.2245616912841797,
1133,1133,4637,2021-10-05 17:13:18.712,-0.2142524719238281,
1134,1134,4641,2021-10-05 17:13:18.716,-0.2033456166585286,
1135,1135,4645,2021-10-05 17:13:18.720,-0.2235158284505208,
1136,1136,4649,2021-10-05 17:13:18.724,-0.2132066090901693,
1137,1137,4653,2021-10-05 17:13:18.728,-0.2357673645019531,
1138,1138,4657,2021-10-05 17:13:18.732,-0.2362155914306641,
1139,1139,4661,2021-10-05 17:13:18.736,-0.2399508158365885,
1140,1140,4665,2021-10-05 17:13:18.740,-0.2496623992919922,
1141,1141,4669,2021-10-05 17:13:18.744,-0.2014032999674479,
1142,1142,4673,2021-10-05 17:13:18.748,-0.1492595672607422,
1143,1143,4677,2021-10-05 17:13:18.752,-0.0503508249918619,
1144,1144,4681,2021-10-05 17:13:18.756,0.0540860493977864,
1145,1145,4685,2021-10-05 17:13:18.760,0.1122061411539713,
1146,1146,4689,2021-10-05 17:13:18.764,0.1636028289794922,
1147,1147,4693,2021-10-05 17:13:18.768,0.0721645355224609,
1148,1148,4697,2021-10-05 17:13:18.772,-0.1008510589599609,
1149,1149,4701,2021-10-05 17:13:18.776,-0.3898080190022787,
1150,1150,4705,2021-10-05 17:13:18.780,-0.7361380259195964,
1151,1151,4709,2021-10-05 17:13:18.784,-0.9684689839680992,
1152,1152,4713,2021-10-05 17:13:18.788,-1.0715611775716147,
1153,1153,4717,2021-10-05 17:13:18.792,-0.9125900268554688,
1154,1154,4721,2021-10-05 17:13:18.796,-0.5994288126627605,
1155,1155,4725,2021-10-05 17:13:18.800,-0.2973238627115885,
1156,1156,4729,2021-10-05 17:13:18.804,-0.0507990519205729,
1157,1157,4733,2021-10-05 17:13:18.808,0.0603612263997395,
1158,1158,4737,2021-10-05 17:13:18.812,0.1051839192708333,
1159,1159,4741,2021-10-05 17:13:18.816,0.0966676076253255,
1160,1160,4745,2021-10-05 17:13:18.820,0.0452709197998046,
1161,1161,4749,2021-10-05 17:13:18.824,0.0144926706949869,
1162,1162,4753,2021-10-05 17:13:18.828,-0.0515460968017578,
1163,1163,4757,2021-10-05 17:13:18.832,-0.085611343383789,
1164,1164,4761,2021-10-05 17:13:18.836,-0.1119073232014974,
1165,1165,4765,2021-10-05 17:13:18.840,-0.1591205596923828,
1166,1166,4769,2021-10-05 17:13:18.844,-0.1691309611002604,
1167,1167,4773,2021-10-05 17:13:18.848,-0.2127583821614583,
1168,1168,4777,2021-10-05 17:13:18.852,-0.222619374593099,
1169,1169,4781,2021-10-05 17:13:18.856,-0.2193323771158854,
1170,1170,4785,2021-10-05 17:13:18.860,-0.2411460876464844,
1171,1171,4789,2021-10-05 17:13:18.864,-0.2215735117594401,
1172,1172,4793,2021-10-05 17:13:18.868,-0.244134267171224,
1173,1173,4797,2021-10-05 17:13:18.872,-0.2375602722167969,
1174,1174,4801,2021-10-05 17:13:18.876,-0.2300898234049479,
1175,1175,4805,2021-10-05 17:13:18.880,-0.2505588531494141,
1176,1176,4809,2021-10-05 17:13:18.884,-0.2344226837158203,
1177,1177,4813,2021-10-05 17:13:18.888,-0.2496623992919922,
1178,1178,4817,2021-10-05 17:13:18.892,-0.2390543619791666,
1179,1179,4821,2021-10-05 17:13:18.896,-0.2262051900227865,
1180,1180,4825,2021-10-05 17:13:18.900,-0.2392037709554036,
1181,1181,4829,2021-10-05 17:13:18.904,-0.214999516805013,
1182,1182,4833,2021-10-05 17:13:18.908,-0.2285957336425781,
1183,1183,4837,2021-10-05 17:13:18.912,-0.2259063720703125,
1184,1184,4841,2021-10-05 17:13:18.916,-0.2238146464029948,
1185,1185,4845,2021-10-05 17:13:18.920,-0.2429389953613281,
1186,1186,4849,2021-10-05 17:13:18.924,-0.2269522349039713,
1187,1187,4853,2021-10-05 17:13:18.928,-0.236365000406901,
1188,1188,4857,2021-10-05 17:13:18.932,-0.2182865142822266,
1189,1189,4861,2021-10-05 17:13:18.936,-0.2066326141357422,
1190,1190,4865,2021-10-05 17:13:18.940,-0.2242628733317057,
1191,1191,4869,2021-10-05 17:13:18.944,-0.1991621653238932,
1192,1192,4873,2021-10-05 17:13:18.948,-0.2040926615397135,
1193,1193,4877,2021-10-05 17:13:18.952,-0.1951281229654948,
1194,1194,4881,2021-10-05 17:13:18.956,-0.193484624226888,
1195,1195,4885,2021-10-05 17:13:18.960,-0.2300898234049479,
1196,1196,4889,2021-10-05 17:13:18.964,-0.21514892578125,
1197,1197,4893,2021-10-05 17:13:18.968,-0.2105172475179036,
1198,1198,4897,2021-10-05 17:13:18.972,-0.207827885945638,
1199,1199,4901,2021-10-05 17:13:18.976,-0.1946798960367838,
1200,1200,4905,2021-10-05 17:13:18.980,-0.2282969156901041,
1201,1201,4909,2021-10-05 17:13:18.984,-0.2141030629475911,
1202,1202,4913,2021-10-05 17:13:18.988,-0.2190335591634115,
1203,1203,4917,2021-10-05 17:13:18.992,-0.2212746938069661,
1204,1204,4921,2021-10-05 17:13:18.996,-0.2061843872070312,
1205,1205,4925,2021-10-05 17:13:19.000,-0.2348709106445312,
1206,1206,4929,2021-10-05 17:13:19.004,-0.2238146464029948,
1207,1207,4933,2021-10-05 17:13:19.008,-0.2456283569335937,
1208,1208,4937,2021-10-05 17:13:19.012,-0.2608680725097657,
1209,1209,4941,2021-10-05 17:13:19.016,-0.2427895863850911,
1210,1210,4945,2021-10-05 17:13:19.020,-0.2581787109375,
1211,1211,4949,2021-10-05 17:13:19.024,-0.2415943145751953,
1212,1212,4953,2021-10-05 17:13:19.028,-0.2572822570800782,
1213,1213,4957,2021-10-05 17:13:19.032,-0.2705796559651693,
1214,1214,4961,2021-10-05 17:13:19.036,-0.2604198455810547,
1215,1215,4965,2021-10-05 17:13:19.040,-0.2880605061848958,
1216,1216,4969,2021-10-05 17:13:19.044,-0.2687867482503255,
1217,1217,4973,2021-10-05 17:13:19.048,-0.2687867482503255,
1218,1218,4977,2021-10-05 17:13:19.052,-0.2635574340820313,
1219,1219,4981,2021-10-05 17:13:19.056,-0.2415943145751953,
1220,1220,4985,2021-10-05 17:13:19.060,-0.2557881673177083,
1221,1221,4989,2021-10-05 17:13:19.064,-0.2275498708089193,
1222,1222,4993,2021-10-05 17:13:19.068,-0.2202288309733073,
1223,1223,4997,2021-10-05 17:13:19.072,-0.2144018809000651,
1224,1224,5001,2021-10-05 17:13:19.076,-0.1848189036051432,
1225,1225,5005,2021-10-05 17:13:19.080,-0.1960245768229166,
1226,1226,5009,2021-10-05 17:13:19.084,-0.1761531829833984,
1227,1227,5013,2021-10-05 17:13:19.088,-0.1779460906982422,
1228,1228,5017,2021-10-05 17:13:19.092,-0.1809342702229817,
1229,1229,5021,2021-10-05 17:13:19.096,-0.164648691813151,
1230,1230,5025,2021-10-05 17:13:19.100,-0.1904964447021484,
1231,1231,5029,2021-10-05 17:13:19.104,-0.1777966817220052,
1232,1232,5033,2021-10-05 17:13:19.108,-0.1839224497477213,
1233,1233,5037,2021-10-05 17:13:19.112,-0.1875082651774088,
1234,1234,5041,2021-10-05 17:13:19.116,-0.1751073201497396,
1235,1235,5045,2021-10-05 17:13:19.120,-0.2015527089436849,
1236,1236,5049,2021-10-05 17:13:19.124,-0.1903470357259114,
1237,1237,5053,2021-10-05 17:13:19.128,-0.207678476969401,
1238,1238,5057,2021-10-05 17:13:19.132,-0.2253087361653646,
1239,1239,5061,2021-10-05 17:13:19.136,-0.2147006988525391,
1240,1240,5065,2021-10-05 17:13:19.140,-0.2311356862386068,
1241,1241,5069,2021-10-05 17:13:19.144,-0.2040926615397135,
1242,1242,5073,2021-10-05 17:13:19.148,-0.2055867513020833,
1243,1243,5077,2021-10-05 17:13:19.152,-0.2173900604248047,
1244,1244,5081,2021-10-05 17:13:19.156,-0.2127583821614583,
1245,1245,5085,2021-10-05 17:13:19.160,-0.2468236287434896,
1246,1246,5089,2021-10-05 17:13:19.164,-0.2374108632405599,
1247,1247,5093,2021-10-05 17:13:19.168,-0.2401002248128255,
1248,1248,5097,2021-10-05 17:13:19.172,-0.236813227335612,
1249,1249,5101,2021-10-05 17:13:19.176,-0.2197806040445963,
1250,1250,5105,2021-10-05 17:13:19.180,-0.244134267171224,
1251,1251,5109,2021-10-05 17:13:19.184,-0.2211252848307291,
1252,1252,5113,2021-10-05 17:13:19.188,-0.2214241027832031,
1253,1253,5117,2021-10-05 17:13:19.192,-0.2229181925455729,
1254,1254,5121,2021-10-05 17:13:19.196,-0.2046902974446615,
1255,1255,5125,2021-10-05 17:13:19.200,-0.2312850952148437,
1256,1256,5129,2021-10-05 17:13:19.204,-0.2188841501871745,
1257,1257,5133,2021-10-05 17:13:19.208,-0.2263545989990234,
1258,1258,5137,2021-10-05 17:13:19.212,-0.2338250478108724,
1259,1259,5141,2021-10-05 17:13:19.216,-0.214999516805013,
1260,1260,5145,2021-10-05 17:13:19.220,-0.2338250478108724,
1261,1261,5149,2021-10-05 17:13:19.224,-0.2196311950683594,
1262,1262,5153,2021-10-05 17:13:19.228,-0.229342778523763,
1263,1263,5157,2021-10-05 17:13:19.232,-0.2338250478108724,
1264,1264,5161,2021-10-05 17:13:19.236,-0.2161947886149088,
1265,1265,5165,2021-10-05 17:13:19.240,-0.2347215016682943,
1266,1266,5169,2021-10-05 17:13:19.244,-0.2135054270426432,
1267,1267,5173,2021-10-05 17:13:19.248,-0.2163441975911458,
1268,1268,5177,2021-10-05 17:13:19.252,-0.2191829681396484,
1269,1269,5181,2021-10-05 17:13:19.256,-0.2027479807535807,
1270,1270,5185,2021-10-05 17:13:19.260,-0.2266534169514974,
1271,1271,5189,2021-10-05 17:13:19.264,-0.2167924245198568,
1272,1272,5193,2021-10-05 17:13:19.268,-0.2253087361653646,
1273,1273,5197,2021-10-05 17:13:19.272,-0.2256075541178385,
1274,1274,5201,2021-10-05 17:13:19.276,-0.2042420705159505,
1275,1275,5205,2021-10-05 17:13:19.280,-0.2239640553792318,
1276,1276,5209,2021-10-05 17:13:19.284,-0.2111148834228516,
1277,1277,5213,2021-10-05 17:13:19.288,-0.2172406514485677,
1278,1278,5217,2021-10-05 17:13:19.292,-0.2251593271891276,
1279,1279,5221,2021-10-05 17:13:19.296,-0.2157465616861979,
1280,1280,5225,2021-10-05 17:13:19.300,-0.236962636311849,
1281,1281,5229,2021-10-05 17:13:19.304,-0.2115631103515625,
1282,1282,5233,2021-10-05 17:13:19.308,-0.2117125193277995,
1283,1283,5237,2021-10-05 17:13:19.312,-0.2120113372802734,
1284,1284,5241,2021-10-05 17:13:19.316,-0.1981163024902344,
1285,1285,5245,2021-10-05 17:13:19.320,-0.2266534169514974,
1286,1286,5249,2021-10-05 17:13:19.324,-0.2187347412109375,
1287,1287,5253,2021-10-05 17:13:19.328,-0.2268028259277344,
1288,1288,5257,2021-10-05 17:13:19.332,-0.2305380503336588,
1289,1289,5261,2021-10-05 17:13:19.336,-0.2118619283040365,
1290,1290,5265,2021-10-05 17:13:19.340,-0.2326297760009766,
1291,1291,5269,2021-10-05 17:13:19.344,-0.2178382873535156,
1292,1292,5273,2021-10-05 17:13:19.348,-0.2303886413574219,
1293,1293,5277,2021-10-05 17:13:19.352,-0.2327791849772135,
1294,1294,5281,2021-10-05 17:13:19.356,-0.2088737487792969,
1295,1295,5285,2021-10-05 17:13:19.360,-0.222171147664388,
1296,1296,5289,2021-10-05 17:13:19.364,-0.207827885945638,
1297,1297,5293,2021-10-05 17:13:19.368,-0.2147006988525391,
1298,1298,5297,2021-10-05 17:13:19.372,-0.2199300130208333,
1299,1299,5301,2021-10-05 17:13:19.376,-0.2045408884684245,
1300,1300,5305,2021-10-05 17:13:19.380,-0.2321815490722656,
1301,1301,5309,2021-10-05 17:13:19.384,-0.2257569630940755,
1302,1302,5313,2021-10-05 17:13:19.388,-0.236962636311849,
1303,1303,5317,2021-10-05 17:13:19.392,-0.2333768208821615,
1304,1304,5321,2021-10-05 17:13:19.396,-0.2058855692545573,
1305,1305,5325,2021-10-05 17:13:19.400,-0.2233664194742838,
1306,1306,5329,2021-10-05 17:13:19.404,-0.2045408884684245,
1307,1307,5333,2021-10-05 17:13:19.408,-0.2169418334960937,
1308,1308,5337,2021-10-05 17:13:19.412,-0.2256075541178385,
1309,1309,5341,2021-10-05 17:13:19.416,-0.2090231577555338,
1310,1310,5345,2021-10-05 17:13:19.420,-0.2211252848307291,
1311,1311,5349,2021-10-05 17:13:19.424,-0.1928869883219401,
1312,1312,5353,2021-10-05 17:13:19.428,-0.1901976267496745,
1313,1313,5357,2021-10-05 17:13:19.432,-0.1981163024902344,
1314,1314,5361,2021-10-05 17:13:19.436,-0.1925881703694661,
1315,1315,5365,2021-10-05 17:13:19.440,-0.2285957336425781,
1316,1316,5369,2021-10-05 17:13:19.444,-0.2232170104980469,
1317,1317,5373,2021-10-05 17:13:19.448,-0.2302392323811849,
1318,1318,5377,2021-10-05 17:13:19.452,-0.2387555440266927,
1319,1319,5381,2021-10-05 17:13:19.456,-0.2323309580485026,
1320,1320,5385,2021-10-05 17:13:19.460,-0.2669938405354818,
1321,1321,5389,2021-10-05 17:13:19.464,-0.257879892985026,
1322,1322,5393,2021-10-05 17:13:19.468,-0.2590751647949219,
1323,1323,5397,2021-10-05 17:13:19.472,-0.2550411224365235,
1324,1324,5401,2021-10-05 17:13:19.476,-0.2242628733317057,
1325,1325,5405,2021-10-05 17:13:19.480,-0.2327791849772135,
1326,1326,5409,2021-10-05 17:13:19.484,-0.2058855692545573,
1327,1327,5413,2021-10-05 17:13:19.488,-0.2058855692545573,
1328,1328,5417,2021-10-05 17:13:19.492,-0.207678476969401,
1329,1329,5421,2021-10-05 17:13:19.496,-0.1975186665852865,
1330,1330,5425,2021-10-05 17:13:19.500,-0.2250099182128906,
1331,1331,5429,2021-10-05 17:13:19.504,-0.2070808410644531,
1332,1332,5433,2021-10-05 17:13:19.508,-0.2097702026367187,
1333,1333,5437,2021-10-05 17:13:19.512,-0.2100690205891927,
1334,1334,5441,2021-10-05 17:13:19.516,-0.1919905344645182,
1335,1335,5445,2021-10-05 17:13:19.520,-0.214850107828776,
1336,1336,5449,2021-10-05 17:13:19.524,-0.2051385243733724,
1337,1337,5453,2021-10-05 17:13:19.528,-0.2212746938069661,
1338,1338,5457,2021-10-05 17:13:19.532,-0.2338250478108724,
1339,1339,5461,2021-10-05 17:13:19.536,-0.2166430155436198,
1340,1340,5465,2021-10-05 17:13:19.540,-0.2327791849772135,
1341,1341,5469,2021-10-05 17:13:19.544,-0.2103678385416666,
1342,1342,5473,2021-10-05 17:13:19.548,-0.2126089731852213,
1343,1343,5477,2021-10-05 17:13:19.552,-0.2208264668782552,
1344,1344,5481,2021-10-05 17:13:19.556,-0.2105172475179036,
1345,1345,5485,2021-10-05 17:13:19.560,-0.2412954966227213,
1346,1346,5489,2021-10-05 17:13:19.564,-0.2338250478108724,
1347,1347,5493,2021-10-05 17:13:19.568,-0.2545928955078125,
1348,1348,5497,2021-10-05 17:13:19.572,-0.2557881673177083,
1349,1349,5501,2021-10-05 17:13:19.576,-0.1969210306803385,
1350,1350,5505,2021-10-05 17:13:19.580,-0.1428349812825521,
1351,1351,5509,2021-10-05 17:13:19.584,-0.0256983439127604,
1352,1352,5513,2021-10-05 17:13:19.588,0.0612576802571614,
1353,1353,5517,2021-10-05 17:13:19.592,0.1328245798746745,
1354,1354,5521,2021-10-05 17:13:19.596,0.171969731648763,
1355,1355,5525,2021-10-05 17:13:19.600,0.0533390045166015,
1356,1356,5529,2021-10-05 17:13:19.604,-0.1302846272786458,
1357,1357,5533,2021-10-05 17:13:19.608,-0.452260971069336,
1358,1358,5537,2021-10-05 17:13:19.612,-0.7817077636718751,
1359,1359,5541,2021-10-05 17:13:19.616,-0.9940179189046224,
1360,1360,5545,2021-10-05 17:13:19.620,-1.0651365915934246,
1361,1361,5549,2021-10-05 17:13:19.624,-0.8619403839111329,
1362,1362,5553,2021-10-05 17:13:19.628,-0.5486297607421876,
1363,1363,5557,2021-10-05 17:13:19.632,-0.2378590901692708,
1364,1364,5561,2021-10-05 17:13:19.636,-0.0104586283365885,
1365,1365,5565,2021-10-05 17:13:19.640,0.0799338022867838,
1366,1366,5569,2021-10-05 17:13:19.644,0.1202742258707682,
1367,1367,5573,2021-10-05 17:13:19.648,0.0888983408610026,
1368,1368,5577,2021-10-05 17:13:19.652,0.0369040171305338,
1369,1369,5581,2021-10-05 17:13:19.656,-0.0004482269287109,
1370,1370,5585,2021-10-05 17:13:19.660,-0.071268081665039,
1371,1371,5589,2021-10-05 17:13:19.664,-0.0981616973876953,
1372,1372,5593,2021-10-05 17:13:19.668,-0.1371574401855469,
1373,1373,5597,2021-10-05 17:13:19.672,-0.164798100789388,
1374,1374,5601,2021-10-05 17:13:19.676,-0.164947509765625,
1375,1375,5605,2021-10-05 17:13:19.680,-0.2018515268961588,
1376,1376,5609,2021-10-05 17:13:19.684,-0.2058855692545573,
1377,1377,5613,2021-10-05 17:13:19.688,-0.2324803670247396,
1378,1378,5617,2021-10-05 17:13:19.692,-0.2480189005533854,
1379,1379,5621,2021-10-05 17:13:19.696,-0.2327791849772135,
1380,1380,5625,2021-10-05 17:13:19.700,-0.2493635813395182,
1381,1381,5629,2021-10-05 17:13:19.704,-0.2299404144287109,
1382,1382,5633,2021-10-05 17:13:19.708,-0.2420425415039062,
1383,1383,5637,2021-10-05 17:13:19.712,-0.2556387583414714,
1384,1384,5641,2021-10-05 17:13:19.716,-0.2424907684326172,
1385,1385,5645,2021-10-05 17:13:19.720,-0.265649159749349,
1386,1386,5649,2021-10-05 17:13:19.724,-0.2375602722167969,
1387,1387,5653,2021-10-05 17:13:19.728,-0.2314345041910807,
1388,1388,5657,2021-10-05 17:13:19.732,-0.2285957336425781,
1389,1389,5661,2021-10-05 17:13:19.736,-0.2072302500406901,
1390,1390,5665,2021-10-05 17:13:19.740,-0.2326297760009766,
1391,1391,5669,2021-10-05 17:13:19.744,-0.2212746938069661,
1392,1392,5673,2021-10-05 17:13:19.748,-0.2272510528564453,
1393,1393,5677,2021-10-05 17:13:19.752,-0.229193369547526,
1394,1394,5681,2021-10-05 17:13:19.756,-0.2052879333496094,
1395,1395,5685,2021-10-05 17:13:19.760,-0.2229181925455729,
1396,1396,5689,2021-10-05 17:13:19.764,-0.2084255218505859,
1397,1397,5693,2021-10-05 17:13:19.768,-0.2194817860921224,
1398,1398,5697,2021-10-05 17:13:19.772,-0.2279980977376302,
1399,1399,5701,2021-10-05 17:13:19.776,-0.2106666564941406,
1400,1400,5705,2021-10-05 17:13:19.780,-0.2314345041910807,
1401,1401,5709,2021-10-05 17:13:19.784,-0.2051385243733724,
1402,1402,5713,2021-10-05 17:13:19.788,-0.2036444346110026,
1403,1403,5717,2021-10-05 17:13:19.792,-0.2021503448486328,
1404,1404,5721,2021-10-05 17:13:19.796,-0.1913928985595703,
1405,1405,5725,2021-10-05 17:13:19.800,-0.222619374593099,
1406,1406,5729,2021-10-05 17:13:19.804,-0.2046902974446615,
1407,1407,5733,2021-10-05 17:13:19.808,-0.2172406514485677,
1408,1408,5737,2021-10-05 17:13:19.812,-0.2253087361653646,
1409,1409,5741,2021-10-05 17:13:19.816,-0.2075290679931641,
1410,1410,5745,2021-10-05 17:13:19.820,-0.2272510528564453,
1411,1411,5749,2021-10-05 17:13:19.824,-0.2099196116129557,
1412,1412,5753,2021-10-05 17:13:19.828,-0.222619374593099,
1413,1413,5757,2021-10-05 17:13:19.832,-0.229641596476237,
1414,1414,5761,2021-10-05 17:13:19.836,-0.2196311950683594,
1415,1415,5765,2021-10-05 17:13:19.840,-0.2530988057454427,
1416,1416,5769,2021-10-05 17:13:19.844,-0.2427895863850911,
1417,1417,5773,2021-10-05 17:13:19.848,-0.2595233917236328,
1418,1418,5777,2021-10-05 17:13:19.852,-0.2686373392740885,
1419,1419,5781,2021-10-05 17:13:19.856,-0.2529493967692057,
1420,1420,5785,2021-10-05 17:13:19.860,-0.279394785563151,
1421,1421,5789,2021-10-05 17:13:19.864,-0.2638562520345052,
1422,1422,5793,2021-10-05 17:13:19.868,-0.2698326110839844,
1423,1423,5797,2021-10-05 17:13:19.872,-0.2749125162760417,
1424,1424,5801,2021-10-05 17:13:19.876,-0.2545928955078125,
1425,1425,5805,2021-10-05 17:13:19.880,-0.2702808380126953,
1426,1426,5809,2021-10-05 17:13:19.884,-0.2420425415039062,
1427,1427,5813,2021-10-05 17:13:19.888,-0.2442836761474609,
1428,1428,5817,2021-10-05 17:13:19.892,-0.2445824940999349,
1429,1429,5821,2021-10-05 17:13:19.896,-0.2202288309733073,
1430,1430,5825,2021-10-05 17:13:19.900,-0.229641596476237,
1431,1431,5829,2021-10-05 17:13:19.904,-0.1931858062744141,
1432,1432,5833,2021-10-05 17:13:19.908,-0.1890023549397786,
1433,1433,5837,2021-10-05 17:13:19.912,-0.1909446716308594,
1434,1434,5841,2021-10-05 17:13:19.916,-0.1688321431477864,
1435,1435,5845,2021-10-05 17:13:19.920,-0.1867612202962239,
1436,1436,5849,2021-10-05 17:13:19.924,-0.1703262329101562,
1437,1437,5853,2021-10-05 17:13:19.928,-0.1769002278645833,
1438,1438,5857,2021-10-05 17:13:19.932,-0.1821295420328776,
1439,1439,5861,2021-10-05 17:13:19.936,-0.1652463277180989,
1440,1440,5865,2021-10-05 17:13:19.940,-0.1890023549397786,
1441,1441,5869,2021-10-05 17:13:19.944,-0.1739120483398437,
1442,1442,5873,2021-10-05 17:13:19.948,-0.1860141754150391,
1443,1443,5877,2021-10-05 17:13:19.952,-0.2014032999674479,
1444,1444,5881,2021-10-05 17:13:19.956,-0.1910940806070963,
1445,1445,5885,2021-10-05 17:13:19.960,-0.2139536539713541,
1446,1446,5889,2021-10-05 17:13:19.964,-0.2155971527099609,
1447,1447,5893,2021-10-05 17:13:19.968,-0.2212746938069661,
1448,1448,5897,2021-10-05 17:13:19.972,-0.2424907684326172,
1449,1449,5901,2021-10-05 17:13:19.976,-0.2133560180664062,
1450,1450,5905,2021-10-05 17:13:19.980,-0.2203782399495443,
1451,1451,5909,2021-10-05 17:13:19.984,-0.2193323771158854,
1452,1452,5913,2021-10-05 17:13:19.988,-0.2257569630940755,
1453,1453,5917,2021-10-05 17:13:19.992,-0.2495129903157552,
1454,1454,5921,2021-10-05 17:13:19.996,-0.2250099182128906,
1455,1455,5925,2021-10-05 17:13:20.000,-0.2412954966227213,
1456,1456,5929,2021-10-05 17:13:20.004,-0.2377096811930338,
1457,1457,5933,2021-10-05 17:13:20.008,-0.2327791849772135,
1458,1458,5937,2021-10-05 17:13:20.012,-0.2462259928385416,
1459,1459,5941,2021-10-05 17:13:20.016,-0.2169418334960937,
1460,1460,5945,2021-10-05 17:13:20.020,-0.2265040079752604,
1461,1461,5949,2021-10-05 17:13:20.024,-0.2160453796386719,
1462,1462,5953,2021-10-05 17:13:20.028,-0.2096207936604818,
1463,1463,5957,2021-10-05 17:13:20.032,-0.2338250478108724,
1464,1464,5961,2021-10-05 17:13:20.036,-0.2190335591634115,
1465,1465,5965,2021-10-05 17:13:20.040,-0.2348709106445312,
1466,1466,5969,2021-10-05 17:13:20.044,-0.2248605092366536,
1467,1467,5973,2021-10-05 17:13:20.048,-0.2176888783772786,
1468,1468,5977,2021-10-05 17:13:20.052,-0.2342732747395833,
1469,1469,5981,2021-10-05 17:13:20.056,-0.2112642923990885,
1470,1470,5985,2021-10-05 17:13:20.060,-0.2302392323811849,
1471,1471,5989,2021-10-05 17:13:20.064,-0.2305380503336588,
1472,1472,5993,2021-10-05 17:13:20.068,-0.222320556640625,
1473,1473,5997,2021-10-05 17:13:20.072,-0.2282969156901041,
1474,1474,6001,2021-10-05 17:13:20.076,-0.1943810780843099,
1475,1475,6005,2021-10-05 17:13:20.080,-0.2058855692545573,
1476,1476,6009,2021-10-05 17:13:20.084,-0.2066326141357422,
1477,1477,6013,2021-10-05 17:13:20.088,-0.2099196116129557,
1478,1478,6017,2021-10-05 17:13:20.092,-0.2290439605712891,
1479,1479,6021,2021-10-05 17:13:20.096,-0.2118619283040365,
1480,1480,6025,2021-10-05 17:13:20.100,-0.2260557810465495,
1481,1481,6029,2021-10-05 17:13:20.104,-0.2191829681396484,
1482,1482,6033,2021-10-05 17:13:20.108,-0.2147006988525391,
1483,1483,6037,2021-10-05 17:13:20.112,-0.2377096811930338,
1484,1484,6041,2021-10-05 17:13:20.116,-0.214850107828776,
1485,1485,6045,2021-10-05 17:13:20.120,-0.2284463246663411,
1486,1486,6049,2021-10-05 17:13:20.124,-0.2160453796386719,
1487,1487,6053,2021-10-05 17:13:20.128,-0.207977294921875,
1488,1488,6057,2021-10-05 17:13:20.132,-0.2306874593098958,
1489,1489,6061,2021-10-05 17:13:20.136,-0.2167924245198568,
1490,1490,6065,2021-10-05 17:13:20.140,-0.2421919504801432,
1491,1491,6069,2021-10-05 17:13:20.144,-0.2396519978841146,
1492,1492,6073,2021-10-05 17:13:20.148,-0.2302392323811849,
1493,1493,6077,2021-10-05 17:13:20.152,-0.2351697285970052,
1494,1494,6081,2021-10-05 17:13:20.156,-0.2058855692545573,
1495,1495,6085,2021-10-05 17:13:20.160,-0.2182865142822266,
1496,1496,6089,2021-10-05 17:13:20.164,-0.2118619283040365,
1497,1497,6093,2021-10-05 17:13:20.168,-0.2096207936604818,
1498,1498,6097,2021-10-05 17:13:20.172,-0.2269522349039713,
1499,1499,6101,2021-10-05 17:13:20.176,-0.200506846110026,
1500,1500,6105,2021-10-05 17:13:20.180,-0.2052879333496094,
1501,1501,6109,2021-10-05 17:13:20.184,-0.1906458536783854,
1502,1502,6113,2021-10-05 17:13:20.188,-0.1803366343180338,
1503,1503,6117,2021-10-05 17:13:20.192,-0.2028973897298177,
1504,1504,6121,2021-10-05 17:13:20.196,-0.1951281229654948,
1505,1505,6125,2021-10-05 17:13:20.200,-0.2257569630940755,
1506,1506,6129,2021-10-05 17:13:20.204,-0.2326297760009766,
1507,1507,6133,2021-10-05 17:13:20.208,-0.2338250478108724,
1508,1508,6137,2021-10-05 17:13:20.212,-0.2541446685791016,
1509,1509,6141,2021-10-05 17:13:20.216,-0.236514409383138,
1510,1510,6145,2021-10-05 17:13:20.220,-0.2631092071533203,
1511,1511,6149,2021-10-05 17:13:20.224,-0.2571328481038412,
1512,1512,6153,2021-10-05 17:13:20.228,-0.2412954966227213,
1513,1513,6157,2021-10-05 17:13:20.232,-0.2430884043375651,
1514,1514,6161,2021-10-05 17:13:20.236,-0.2115631103515625,
1515,1515,6165,2021-10-05 17:13:20.240,-0.2214241027832031,
1516,1516,6169,2021-10-05 17:13:20.244,-0.2090231577555338,
1517,1517,6173,2021-10-05 17:13:20.248,-0.2030467987060547,
1518,1518,6177,2021-10-05 17:13:20.252,-0.222171147664388,
1519,1519,6181,2021-10-05 17:13:20.256,-0.2022997538248698,
1520,1520,6185,2021-10-05 17:13:20.260,-0.2205276489257812,
1521,1521,6189,2021-10-05 17:13:20.264,-0.2141030629475911,
1522,1522,6193,2021-10-05 17:13:20.268,-0.2100690205891927,
1523,1523,6197,2021-10-05 17:13:20.272,-0.2305380503336588,
1524,1524,6201,2021-10-05 17:13:20.276,-0.2085749308268229,
1525,1525,6205,2021-10-05 17:13:20.280,-0.2248605092366536,
1526,1526,6209,2021-10-05 17:13:20.284,-0.215447743733724,
1527,1527,6213,2021-10-05 17:13:20.288,-0.2084255218505859,
1528,1528,6217,2021-10-05 17:13:20.292,-0.2200794219970703,
1529,1529,6221,2021-10-05 17:13:20.296,-0.2042420705159505,
1530,1530,6225,2021-10-05 17:13:20.300,-0.2238146464029948,
1531,1531,6229,2021-10-05 17:13:20.304,-0.214850107828776,
1532,1532,6233,2021-10-05 17:13:20.308,-0.2103678385416666,
1533,1533,6237,2021-10-05 17:13:20.312,-0.2347215016682943,
1534,1534,6241,2021-10-05 17:13:20.316,-0.2254581451416016,
1535,1535,6245,2021-10-05 17:13:20.320,-0.2562363942464193,
1536,1536,6249,2021-10-05 17:13:20.324,-0.244134267171224,
1537,1537,6253,2021-10-05 17:13:20.328,-0.2039432525634766,
1538,1538,6257,2021-10-05 17:13:20.332,-0.1540406545003255,
1539,1539,6261,2021-10-05 17:13:20.336,-0.0448226928710937,
1540,1540,6265,2021-10-05 17:13:20.340,0.0363063812255859,
1541,1541,6269,2021-10-05 17:13:20.344,0.1356633504231771,
1542,1542,6273,2021-10-05 17:13:20.348,0.1821295420328776,
1543,1543,6277,2021-10-05 17:13:20.352,0.078290303548177,
1544,1544,6281,2021-10-05 17:13:20.356,-0.106976826985677,
1545,1545,6285,2021-10-05 17:13:20.360,-0.4467328389485677,
1546,1546,6289,2021-10-05 17:13:20.364,-0.7687091827392579,
1547,1547,6293,2021-10-05 17:13:20.368,-1.007464726765951,
1548,1548,6297,2021-10-05 17:13:20.372,-1.0960642496744792,
1549,1549,6301,2021-10-05 17:13:20.376,-0.897051493326823,
1550,1550,6305,2021-10-05 17:13:20.380,-0.5825455983479818,
1551,1551,6309,2021-10-05 17:13:20.384,-0.2450307210286458,
1552,1552,6313,2021-10-05 17:13:20.388,-0.0052293141682942,
1553,1553,6317,2021-10-05 17:13:20.392,0.0974146525065104,
1554,1554,6321,2021-10-05 17:13:20.396,0.1399962107340495,
1555,1555,6325,2021-10-05 17:13:20.400,0.0954723358154297,
1556,1556,6329,2021-10-05 17:13:20.404,0.0551319122314453,
1557,1557,6333,2021-10-05 17:13:20.408,0.0112056732177734,
1558,1558,6337,2021-10-05 17:13:20.412,-0.0602118174235026,
1559,1559,6341,2021-10-05 17:13:20.416,-0.0862089792887369,
1560,1560,6345,2021-10-05 17:13:20.420,-0.1379044850667317,
1561,1561,6349,2021-10-05 17:13:20.424,-0.1607640584309896,
1562,1562,6353,2021-10-05 17:13:20.428,-0.1771990458170573,
1563,1563,6357,2021-10-05 17:13:20.432,-0.2138042449951172,
1564,1564,6361,2021-10-05 17:13:20.436,-0.2099196116129557,
1565,1565,6365,2021-10-05 17:13:20.440,-0.2371120452880859,
1566,1566,6369,2021-10-05 17:13:20.444,-0.2321815490722656,
1567,1567,6373,2021-10-05 17:13:20.448,-0.2312850952148437,
1568,1568,6377,2021-10-05 17:13:20.452,-0.2604198455810547,
1569,1569,6381,2021-10-05 17:13:20.456,-0.2456283569335937,
1570,1570,6385,2021-10-05 17:13:20.460,-0.2572822570800782,
1571,1571,6389,2021-10-05 17:13:20.464,-0.2414449055989583,
1572,1572,6393,2021-10-05 17:13:20.468,-0.229641596476237,
1573,1573,6397,2021-10-05 17:13:20.472,-0.2466742197672526,
1574,1574,6401,2021-10-05 17:13:20.476,-0.2278486887613932,
1575,1575,6405,2021-10-05 17:13:20.480,-0.2433872222900391,
1576,1576,6409,2021-10-05 17:13:20.484,-0.2357673645019531,
1577,1577,6413,2021-10-05 17:13:20.488,-0.2260557810465495,
1578,1578,6417,2021-10-05 17:13:20.492,-0.2374108632405599,
1579,1579,6421,2021-10-05 17:13:20.496,-0.2132066090901693,
1580,1580,6425,2021-10-05 17:13:20.500,-0.2314345041910807,
1581,1581,6429,2021-10-05 17:13:20.504,-0.2248605092366536,
1582,1582,6433,2021-10-05 17:13:20.508,-0.2163441975911458,
1583,1583,6437,2021-10-05 17:13:20.512,-0.2305380503336588,
1584,1584,6441,2021-10-05 17:13:20.516,-0.2060349782307943,
1585,1585,6445,2021-10-05 17:13:20.520,-0.2194817860921224,
1586,1586,6449,2021-10-05 17:13:20.524,-0.2052879333496094,
1587,1587,6453,2021-10-05 17:13:20.528,-0.1978174845377604,
1588,1588,6457,2021-10-05 17:13:20.532,-0.2164936065673828,
1589,1589,6461,2021-10-05 17:13:20.536,-0.1960245768229166,
1590,1590,6465,2021-10-05 17:13:20.540,-0.2188841501871745,
1591,1591,6469,2021-10-05 17:13:20.544,-0.2097702026367187,
1592,1592,6473,2021-10-05 17:13:20.548,-0.2027479807535807,
1593,1593,6477,2021-10-05 17:13:20.552,-0.2203782399495443,
1594,1594,6481,2021-10-05 17:13:20.556,-0.2017021179199219,
1595,1595,6485,2021-10-05 17:13:20.560,-0.2259063720703125,
1596,1596,6489,2021-10-05 17:13:20.564,-0.2161947886149088,
1597,1597,6493,2021-10-05 17:13:20.568,-0.2066326141357422,
1598,1598,6497,2021-10-05 17:13:20.572,-0.2333768208821615,
1599,1599,6501,2021-10-05 17:13:20.576,-0.2190335591634115,
1600,1600,6505,2021-10-05 17:13:20.580,-0.24383544921875,
1601,1601,6509,2021-10-05 17:13:20.584,-0.2396519978841146,
1602,1602,6513,2021-10-05 17:13:20.588,-0.2308368682861328,
1603,1603,6517,2021-10-05 17:13:20.592,-0.251305898030599,
1604,1604,6521,2021-10-05 17:13:20.596,-0.2348709106445312,
1605,1605,6525,2021-10-05 17:13:20.600,-0.2604198455810547,
1606,1606,6529,2021-10-05 17:13:20.604,-0.2557881673177083,
1607,1607,6533,2021-10-05 17:13:20.608,-0.2577304840087891,
1608,1608,6537,2021-10-05 17:13:20.612,-0.2850723266601563,
1609,1609,6541,2021-10-05 17:13:20.616,-0.2677408854166667,
1610,1610,6545,2021-10-05 17:13:20.620,-0.2850723266601563,
1611,1611,6549,2021-10-05 17:13:20.624,-0.2646032969156901,
1612,1612,6553,2021-10-05 17:13:20.628,-0.2477200826009115,
1613,1613,6557,2021-10-05 17:13:20.632,-0.2523517608642578,
1614,1614,6561,2021-10-05 17:13:20.636,-0.2253087361653646,
1615,1615,6565,2021-10-05 17:13:20.640,-0.2429389953613281,
1616,1616,6569,2021-10-05 17:13:20.644,-0.2285957336425781,
1617,1617,6573,2021-10-05 17:13:20.648,-0.2160453796386719,
1618,1618,6577,2021-10-05 17:13:20.652,-0.2232170104980469,
1619,1619,6581,2021-10-05 17:13:20.656,-0.1912434895833333,
1620,1620,6585,2021-10-05 17:13:20.660,-0.1991621653238932,
1621,1621,6589,2021-10-05 17:13:20.664,-0.1833248138427734,
1622,1622,6593,2021-10-05 17:13:20.668,-0.1682345072428385,
1623,1623,6597,2021-10-05 17:13:20.672,-0.1824283599853516,
1624,1624,6601,2021-10-05 17:13:20.676,-0.1613616943359375,
1625,1625,6605,2021-10-05 17:13:20.680,-0.1743602752685547,
1626,1626,6609,2021-10-05 17:13:20.684,-0.1686827341715495,
1627,1627,6613,2021-10-05 17:13:20.688,-0.1710732777913411,
1628,1628,6617,2021-10-05 17:13:20.692,-0.1946798960367838,
1629,1629,6621,2021-10-05 17:13:20.696,-0.1776472727457682,
1630,1630,6625,2021-10-05 17:13:20.700,-0.1999092102050781,
1631,1631,6629,2021-10-05 17:13:20.704,-0.2012538909912109,
1632,1632,6633,2021-10-05 17:13:20.708,-0.2063337961832682,
1633,1633,6637,2021-10-05 17:13:20.712,-0.2339744567871094,
1634,1634,6641,2021-10-05 17:13:20.716,-0.2123101552327474,
1635,1635,6645,2021-10-05 17:13:20.720,-0.222469965616862,
1636,1636,6649,2021-10-05 17:13:20.724,-0.2172406514485677,
1637,1637,6653,2021-10-05 17:13:20.728,-0.2182865142822266,
1638,1638,6657,2021-10-05 17:13:20.732,-0.2447319030761719,
1639,1639,6661,2021-10-05 17:13:20.736,-0.2302392323811849,
1640,1640,6665,2021-10-05 17:13:20.740,-0.2415943145751953,
1641,1641,6669,2021-10-05 17:13:20.744,-0.2318827311197916,
1642,1642,6673,2021-10-05 17:13:20.748,-0.2266534169514974,
1643,1643,6677,2021-10-05 17:13:20.752,-0.244134267171224,
1644,1644,6681,2021-10-05 17:13:20.756,-0.2176888783772786,
1645,1645,6685,2021-10-05 17:13:20.760,-0.2324803670247396,
1646,1646,6689,2021-10-05 17:13:20.764,-0.2184359232584635,
1647,1647,6693,2021-10-05 17:13:20.768,-0.2120113372802734,
1648,1648,6697,2021-10-05 17:13:20.772,-0.2362155914306641,
1649,1649,6701,2021-10-05 17:13:20.776,-0.2217229207356771,
1650,1650,6705,2021-10-05 17:13:20.780,-0.2408472696940104,
1651,1651,6709,2021-10-05 17:13:20.784,-0.2278486887613932,
1652,1652,6713,2021-10-05 17:13:20.788,-0.2147006988525391,
1653,1653,6717,2021-10-05 17:13:20.792,-0.2299404144287109,
1654,1654,6721,2021-10-05 17:13:20.796,-0.2094713846842448,
1655,1655,6725,2021-10-05 17:13:20.800,-0.2305380503336588,
1656,1656,6729,2021-10-05 17:13:20.804,-0.2260557810465495,
1657,1657,6733,2021-10-05 17:13:20.808,-0.2182865142822266,
1658,1658,6737,2021-10-05 17:13:20.812,-0.229641596476237,
1659,1659,6741,2021-10-05 17:13:20.816,-0.2048397064208984,
1660,1660,6745,2021-10-05 17:13:20.820,-0.2227687835693359,
1661,1661,6749,2021-10-05 17:13:20.824,-0.2169418334960937,
1662,1662,6753,2021-10-05 17:13:20.828,-0.215447743733724,
1663,1663,6757,2021-10-05 17:13:20.832,-0.2345720926920573,
1664,1664,6761,2021-10-05 17:13:20.836,-0.2106666564941406,
1665,1665,6765,2021-10-05 17:13:20.840,-0.2279980977376302,
1666,1666,6769,2021-10-05 17:13:20.844,-0.2193323771158854,
1667,1667,6773,2021-10-05 17:13:20.848,-0.2139536539713541,
1668,1668,6777,2021-10-05 17:13:20.852,-0.2309862772623698,
1669,1669,6781,2021-10-05 17:13:20.856,-0.2084255218505859,
1670,1670,6785,2021-10-05 17:13:20.860,-0.2285957336425781,
1671,1671,6789,2021-10-05 17:13:20.864,-0.2215735117594401,
1672,1672,6793,2021-10-05 17:13:20.868,-0.2124595642089844,
1673,1673,6797,2021-10-05 17:13:20.872,-0.2294921875,
1674,1674,6801,2021-10-05 17:13:20.876,-0.207827885945638,
1675,1675,6805,2021-10-05 17:13:20.880,-0.2169418334960937,
1676,1676,6809,2021-10-05 17:13:20.884,-0.2002080281575521,
1677,1677,6813,2021-10-05 17:13:20.888,-0.1852671305338541,
1678,1678,6817,2021-10-05 17:13:20.892,-0.1993115743001302,
1679,1679,6821,2021-10-05 17:13:20.896,-0.1842212677001953,
1680,1680,6825,2021-10-05 17:13:20.900,-0.2132066090901693,
1681,1681,6829,2021-10-05 17:13:20.904,-0.2169418334960937,
1682,1682,6833,2021-10-05 17:13:20.908,-0.2206770579020182,
1683,1683,6837,2021-10-05 17:13:20.912,-0.2457777659098307,
1684,1684,6841,2021-10-05 17:13:20.916,-0.229641596476237,
1685,1685,6845,2021-10-05 17:13:20.920,-0.2486165364583333,
1686,1686,6849,2021-10-05 17:13:20.924,-0.2393531799316406,
1687,1687,6853,2021-10-05 17:13:20.928,-0.229641596476237,
1688,1688,6857,2021-10-05 17:13:20.932,-0.2538458506266276,
1689,1689,6861,2021-10-05 17:13:20.936,-0.236962636311849,
1690,1690,6865,2021-10-05 17:13:20.940,-0.2490647633870443,
1691,1691,6869,2021-10-05 17:13:20.944,-0.2278486887613932,
1692,1692,6873,2021-10-05 17:13:20.948,-0.2048397064208984,
1693,1693,6877,2021-10-05 17:13:20.952,-0.2217229207356771,
1694,1694,6881,2021-10-05 17:13:20.956,-0.1997598012288411,
1695,1695,6885,2021-10-05 17:13:20.960,-0.215447743733724,
1696,1696,6889,2021-10-05 17:13:20.964,-0.2305380503336588,
1697,1697,6893,2021-10-05 17:13:20.968,-0.2133560180664062,
1698,1698,6897,2021-10-05 17:13:20.972,-0.2282969156901041,
1699,1699,6901,2021-10-05 17:13:20.976,-0.1999092102050781,
1700,1700,6905,2021-10-05 17:13:20.980,-0.2025985717773437,
1701,1701,6909,2021-10-05 17:13:20.984,-0.2173900604248047,
1702,1702,6913,2021-10-05 17:13:20.988,-0.2073796590169271,
1703,1703,6917,2021-10-05 17:13:20.992,-0.2327791849772135,
1704,1704,6921,2021-10-05 17:13:20.996,-0.2129077911376953,
1705,1705,6925,2021-10-05 17:13:21.000,-0.2139536539713541,
1706,1706,6929,2021-10-05 17:13:21.004,-0.21514892578125,
1707,1707,6933,2021-10-05 17:13:21.008,-0.1991621653238932,
1708,1708,6937,2021-10-05 17:13:21.012,-0.2276992797851562,
1709,1709,6941,2021-10-05 17:13:21.016,-0.2190335591634115,
1710,1710,6945,2021-10-05 17:13:21.020,-0.2351697285970052,
1711,1711,6949,2021-10-05 17:13:21.024,-0.251007080078125,
1712,1712,6953,2021-10-05 17:13:21.028,-0.2393531799316406,
1713,1713,6957,2021-10-05 17:13:21.032,-0.2445824940999349,
1714,1714,6961,2021-10-05 17:13:21.036,-0.1766014099121094,
1715,1715,6965,2021-10-05 17:13:21.040,-0.0981616973876953,
1716,1716,6969,2021-10-05 17:13:21.044,0.0007470448811848,
1717,1717,6973,2021-10-05 17:13:21.048,0.1228141784667968,
1718,1718,6977,2021-10-05 17:13:21.052,0.1773484547932942,
1719,1719,6981,2021-10-05 17:13:21.056,0.1701768239339192,
1720,1720,6985,2021-10-05 17:13:21.060,-0.0113550821940104,
1721,1721,6989,2021-10-05 17:13:21.064,-0.3021049499511719,
1722,1722,6993,2021-10-05 17:13:21.068,-0.6270694732666017,
1723,1723,6997,2021-10-05 17:13:21.072,-0.9420235951741538,
1724,1724,7001,2021-10-05 17:13:21.076,-1.076790491739909,
1725,1725,7005,2021-10-05 17:13:21.080,-1.019268035888672,
1726,1726,7009,2021-10-05 17:13:21.084,-0.7433096567789714,
1727,1727,7013,2021-10-05 17:13:21.088,-0.3774070739746094,
1728,1728,7017,2021-10-05 17:13:21.092,-0.1131025950113932,
1729,1729,7021,2021-10-05 17:13:21.096,0.0633494059244791,
1730,1730,7025,2021-10-05 17:13:21.100,0.1181825002034505,
1731,1731,7029,2021-10-05 17:13:21.104,0.1162401835123698,
1732,1732,7033,2021-10-05 17:13:21.108,0.1008510589599609,
1733,1733,7037,2021-10-05 17:13:21.112,0.0364557902018229,
1734,1734,7041,2021-10-05 17:13:21.116,-0.0016434987386067,
1735,1735,7045,2021-10-05 17:13:21.120,-0.0630505879720052,
1736,1736,7049,2021-10-05 17:13:21.124,-0.1184813181559245,
1737,1737,7053,2021-10-05 17:13:21.128,-0.1380538940429687,
1738,1738,7057,2021-10-05 17:13:21.132,-0.1913928985595703,
1739,1739,7061,2021-10-05 17:13:21.136,-0.1940822601318359,
1740,1740,7065,2021-10-05 17:13:21.140,-0.2123101552327474,
1741,1741,7069,2021-10-05 17:13:21.144,-0.2250099182128906,
1742,1742,7073,2021-10-05 17:13:21.148,-0.2205276489257812,
1743,1743,7077,2021-10-05 17:13:21.152,-0.2525011698404948,
1744,1744,7081,2021-10-05 17:13:21.156,-0.2390543619791666,
1745,1745,7085,2021-10-05 17:13:21.160,-0.251305898030599,
1746,1746,7089,2021-10-05 17:13:21.164,-0.2589257558186849,
1747,1747,7093,2021-10-05 17:13:21.168,-0.2447319030761719,
1748,1748,7097,2021-10-05 17:13:21.172,-0.27252197265625,
1749,1749,7101,2021-10-05 17:13:21.176,-0.2517541249593099,
1750,1750,7105,2021-10-05 17:13:21.180,-0.2484671274820963,
1751,1751,7109,2021-10-05 17:13:21.184,-0.2393531799316406,
1752,1752,7113,2021-10-05 17:13:21.188,-0.2133560180664062,
1753,1753,7117,2021-10-05 17:13:21.192,-0.2329285939534505,
1754,1754,7121,2021-10-05 17:13:21.196,-0.2124595642089844,
1755,1755,7125,2021-10-05 17:13:21.200,-0.2212746938069661,
1756,1756,7129,2021-10-05 17:13:21.204,-0.2232170104980469,
1757,1757,7133,2021-10-05 17:13:21.208,-0.2084255218505859,
1758,1758,7137,2021-10-05 17:13:21.212,-0.2392037709554036,
1759,1759,7141,2021-10-05 17:13:21.216,-0.2202288309733073,
1760,1760,7145,2021-10-05 17:13:21.220,-0.2209758758544922,
1761,1761,7149,2021-10-05 17:13:21.224,-0.2161947886149088,
1762,1762,7153,2021-10-05 17:13:21.228,-0.1966222127278646,
1763,1763,7157,2021-10-05 17:13:21.232,-0.222021738688151,
1764,1764,7161,2021-10-05 17:13:21.236,-0.2054373423258463,
1765,1765,7165,2021-10-05 17:13:21.240,-0.2161947886149088,
1766,1766,7169,2021-10-05 17:13:21.244,-0.222171147664388,
1767,1767,7173,2021-10-05 17:13:21.248,-0.2039432525634766,
1768,1768,7177,2021-10-05 17:13:21.252,-0.2242628733317057,
1769,1769,7181,2021-10-05 17:13:21.256,-0.1942316691080729,
1770,1770,7185,2021-10-05 17:13:21.260,-0.2012538909912109,
1771,1771,7189,2021-10-05 17:13:21.264,-0.2045408884684245,
1772,1772,7193,2021-10-05 17:13:21.268,-0.1922893524169922,
1773,1773,7197,2021-10-05 17:13:21.272,-0.2247111002604166,
1774,1774,7201,2021-10-05 17:13:21.276,-0.2112642923990885,
1775,1775,7205,2021-10-05 17:13:21.280,-0.2275498708089193,
1776,1776,7209,2021-10-05 17:13:21.284,-0.2377096811930338,
1777,1777,7213,2021-10-05 17:13:21.288,-0.2242628733317057,
1778,1778,7217,2021-10-05 17:13:21.292,-0.2533976236979167,
1779,1779,7221,2021-10-05 17:13:21.296,-0.2392037709554036,
1780,1780,7225,2021-10-05 17:13:21.300,-0.250857671101888,
1781,1781,7229,2021-10-05 17:13:21.304,-0.2589257558186849,
1782,1782,7233,2021-10-05 17:13:21.308,-0.2474212646484375,
1783,1783,7237,2021-10-05 17:13:21.312,-0.279394785563151,
1784,1784,7241,2021-10-05 17:13:21.316,-0.265649159749349,
1785,1785,7245,2021-10-05 17:13:21.320,-0.2779006958007813,
1786,1786,7249,2021-10-05 17:13:21.324,-0.2770042419433594,
1787,1787,7253,2021-10-05 17:13:21.328,-0.2527999877929688,
1788,1788,7257,2021-10-05 17:13:21.332,-0.272372563680013,
1789,1789,7261,2021-10-05 17:13:21.336,-0.2530988057454427,
1790,1790,7265,2021-10-05 17:13:21.340,-0.2541446685791016,
1791,1791,7269,2021-10-05 17:13:21.344,-0.2478694915771484,
1792,1792,7273,2021-10-05 17:13:21.348,-0.2208264668782552,
1793,1793,7277,2021-10-05 17:13:21.352,-0.2323309580485026,
1794,1794,7281,2021-10-05 17:13:21.356,-0.2017021179199219,
1795,1795,7285,2021-10-05 17:13:21.360,-0.1985645294189453,
1796,1796,7289,2021-10-05 17:13:21.364,-0.1900482177734375,
1797,1797,7293,2021-10-05 17:13:21.368,-0.1628557840983073,
1798,1798,7297,2021-10-05 17:13:21.372,-0.1860141754150391,
1799,1799,7301,2021-10-05 17:13:21.376,-0.1655451456705729,
1800,1800,7305,2021-10-05 17:13:21.380,-0.1739120483398437,
1801,1801,7309,2021-10-05 17:13:21.384,-0.1852671305338541,
1802,1802,7313,2021-10-05 17:13:21.388,-0.1697285970052083,
1803,1803,7317,2021-10-05 17:13:21.392,-0.193634033203125,
1804,1804,7321,2021-10-05 17:13:21.396,-0.1766014099121094,
1805,1805,7325,2021-10-05 17:13:21.400,-0.1846694946289062,
1806,1806,7329,2021-10-05 17:13:21.404,-0.1955763498942057,
1807,1807,7333,2021-10-05 17:13:21.408,-0.1827271779378255,
1808,1808,7337,2021-10-05 17:13:21.412,-0.2100690205891927,
1809,1809,7341,2021-10-05 17:13:21.416,-0.2022997538248698,
1810,1810,7345,2021-10-05 17:13:21.420,-0.2274004618326823,
1811,1811,7349,2021-10-05 17:13:21.424,-0.2330780029296875,
1812,1812,7353,2021-10-05 17:13:21.428,-0.2172406514485677,
1813,1813,7357,2021-10-05 17:13:21.432,-0.2402496337890625,
1814,1814,7361,2021-10-05 17:13:21.436,-0.2175394694010416,
1815,1815,7365,2021-10-05 17:13:21.440,-0.222469965616862,
1816,1816,7369,2021-10-05 17:13:21.444,-0.2274004618326823,
1817,1817,7373,2021-10-05 17:13:21.448,-0.2112642923990885,
1818,1818,7377,2021-10-05 17:13:21.452,-0.2345720926920573,
1819,1819,7381,2021-10-05 17:13:21.456,-0.2262051900227865,
1820,1820,7385,2021-10-05 17:13:21.460,-0.244134267171224,
1821,1821,7389,2021-10-05 17:13:21.464,-0.250708262125651,
1822,1822,7393,2021-10-05 17:13:21.468,-0.2238146464029948,
1823,1823,7397,2021-10-05 17:13:21.472,-0.2402496337890625,
1824,1824,7401,2021-10-05 17:13:21.476,-0.2197806040445963,
1825,1825,7405,2021-10-05 17:13:21.480,-0.2236652374267578,
1826,1826,7409,2021-10-05 17:13:21.484,-0.2312850952148437,
1827,1827,7413,2021-10-05 17:13:21.488,-0.2199300130208333,
1828,1828,7417,2021-10-05 17:13:21.492,-0.2456283569335937,
1829,1829,7421,2021-10-05 17:13:21.496,-0.2218723297119141,
1830,1830,7425,2021-10-05 17:13:21.500,-0.2199300130208333,
1831,1831,7429,2021-10-05 17:13:21.504,-0.2199300130208333,
1832,1832,7433,2021-10-05 17:13:21.508,-0.1991621653238932,
1833,1833,7437,2021-10-05 17:13:21.512,-0.2242628733317057,
1834,1834,7441,2021-10-05 17:13:21.516,-0.2109654744466146,
1835,1835,7445,2021-10-05 17:13:21.520,-0.2197806040445963,
1836,1836,7449,2021-10-05 17:13:21.524,-0.2244122823079427,
1837,1837,7453,2021-10-05 17:13:21.528,-0.207827885945638,
1838,1838,7457,2021-10-05 17:13:21.532,-0.2333768208821615,
1839,1839,7461,2021-10-05 17:13:21.536,-0.2164936065673828,
1840,1840,7465,2021-10-05 17:13:21.540,-0.2215735117594401,
1841,1841,7469,2021-10-05 17:13:21.544,-0.2260557810465495,
1842,1842,7473,2021-10-05 17:13:21.548,-0.207827885945638,
1843,1843,7477,2021-10-05 17:13:21.552,-0.2263545989990234,
1844,1844,7481,2021-10-05 17:13:21.556,-0.207977294921875,
1845,1845,7485,2021-10-05 17:13:21.560,-0.2206770579020182,
1846,1846,7489,2021-10-05 17:13:21.564,-0.2308368682861328,
1847,1847,7493,2021-10-05 17:13:21.568,-0.2175394694010416,
1848,1848,7497,2021-10-05 17:13:21.572,-0.2392037709554036,
1849,1849,7501,2021-10-05 17:13:21.576,-0.2058855692545573,
1850,1850,7505,2021-10-05 17:13:21.580,-0.2002080281575521,
1851,1851,7509,2021-10-05 17:13:21.584,-0.1994609832763672,
1852,1852,7513,2021-10-05 17:13:21.588,-0.1795895894368489,
1853,1853,7517,2021-10-05 17:13:21.592,-0.200506846110026,
1854,1854,7521,2021-10-05 17:13:21.596,-0.1875082651774088,
1855,1855,7525,2021-10-05 17:13:21.600,-0.208276112874349,
1856,1856,7529,2021-10-05 17:13:21.604,-0.2290439605712891,
1857,1857,7533,2021-10-05 17:13:21.608,-0.2309862772623698,
1858,1858,7537,2021-10-05 17:13:21.612,-0.2616151173909505,
1859,1859,7541,2021-10-05 17:13:21.616,-0.2424907684326172,
1860,1860,7545,2021-10-05 17:13:21.620,-0.2447319030761719,
1861,1861,7549,2021-10-05 17:13:21.624,-0.244134267171224,
1862,1862,7553,2021-10-05 17:13:21.628,-0.2254581451416016,
1863,1863,7557,2021-10-05 17:13:21.632,-0.2516047159830729,
1864,1864,7561,2021-10-05 17:13:21.636,-0.2314345041910807,
1865,1865,7565,2021-10-05 17:13:21.640,-0.2299404144287109,
1866,1866,7569,2021-10-05 17:13:21.644,-0.2242628733317057,
1867,1867,7573,2021-10-05 17:13:21.648,-0.1987139383951823,
1868,1868,7577,2021-10-05 17:13:21.652,-0.2191829681396484,
1869,1869,7581,2021-10-05 17:13:21.656,-0.2042420705159505,
1870,1870,7585,2021-10-05 17:13:21.660,-0.2184359232584635,
1871,1871,7589,2021-10-05 17:13:21.664,-0.2247111002604166,
1872,1872,7593,2021-10-05 17:13:21.668,-0.2067820231119791,
1873,1873,7597,2021-10-05 17:13:21.672,-0.2284463246663411,
1874,1874,7601,2021-10-05 17:13:21.676,-0.2109654744466146,
1875,1875,7605,2021-10-05 17:13:21.680,-0.2181371053059896,
1876,1876,7609,2021-10-05 17:13:21.684,-0.2123101552327474,
1877,1877,7613,2021-10-05 17:13:21.688,-0.1955763498942057,
1878,1878,7617,2021-10-05 17:13:21.692,-0.2167924245198568,
1879,1879,7621,2021-10-05 17:13:21.696,-0.2036444346110026,
1880,1880,7625,2021-10-05 17:13:21.700,-0.2161947886149088,
1881,1881,7629,2021-10-05 17:13:21.704,-0.2257569630940755,
1882,1882,7633,2021-10-05 17:13:21.708,-0.2130572001139323,
1883,1883,7637,2021-10-05 17:13:21.712,-0.2386061350504557,
1884,1884,7641,2021-10-05 17:13:21.716,-0.2184359232584635,
1885,1885,7645,2021-10-05 17:13:21.720,-0.2259063720703125,
1886,1886,7649,2021-10-05 17:13:21.724,-0.243536631266276,
1887,1887,7653,2021-10-05 17:13:21.728,-0.229641596476237,
1888,1888,7657,2021-10-05 17:13:21.732,-0.2274004618326823,
1889,1889,7661,2021-10-05 17:13:21.736,-0.1410420735677083,
1890,1890,7665,2021-10-05 17:13:21.740,-0.0507990519205729,
1891,1891,7669,2021-10-05 17:13:21.744,0.0488567352294921,
1892,1892,7673,2021-10-05 17:13:21.748,0.1676368713378906,
1893,1893,7677,2021-10-05 17:13:21.752,0.1867612202962239,
1894,1894,7681,2021-10-05 17:13:21.756,0.1128037770589192,
1895,1895,7685,2021-10-05 17:13:21.760,-0.128939946492513,
1896,1896,7689,2021-10-05 17:13:21.764,-0.473477045694987,
1897,1897,7693,2021-10-05 17:13:21.768,-0.7985909779866538,
1898,1898,7697,2021-10-05 17:13:21.772,-1.0690212249755862,
1899,1899,7701,2021-10-05 17:13:21.776,-1.0977077484130862,
1900,1900,7705,2021-10-05 17:13:21.780,-0.8994420369466147,
1901,1901,7709,2021-10-05 17:13:21.784,-0.5583413441975912,
1902,1902,7713,2021-10-05 17:13:21.788,-0.2090231577555338,
1903,1903,7717,2021-10-05 17:13:21.792,-0.0106080373128255,
1904,1904,7721,2021-10-05 17:13:21.796,0.1126543680826823,
1905,1905,7725,2021-10-05 17:13:21.800,0.1244576772054036,
1906,1906,7729,2021-10-05 17:13:21.804,0.0902430216471354,
1907,1907,7733,2021-10-05 17:13:21.808,0.0684293111165364,
1908,1908,7737,2021-10-05 17:13:21.812,-0.0080680847167968,
1909,1909,7741,2021-10-05 17:13:21.816,-0.0392945607503255,
1910,1910,7745,2021-10-05 17:13:21.820,-0.0897947947184244,
1911,1911,7749,2021-10-05 17:13:21.824,-0.12908935546875,
1912,1912,7753,2021-10-05 17:13:21.828,-0.1414903004964192,
1913,1913,7757,2021-10-05 17:13:21.832,-0.1904964447021484,
1914,1914,7761,2021-10-05 17:13:21.836,-0.1990127563476562,
1915,1915,7765,2021-10-05 17:13:21.840,-0.2269522349039713,
1916,1916,7769,2021-10-05 17:13:21.844,-0.2420425415039062,
1917,1917,7773,2021-10-05 17:13:21.848,-0.2321815490722656,
1918,1918,7777,2021-10-05 17:13:21.852,-0.2577304840087891,
1919,1919,7781,2021-10-05 17:13:21.856,-0.2392037709554036,
1920,1920,7785,2021-10-05 17:13:21.860,-0.2454789479573568,
1921,1921,7789,2021-10-05 17:13:21.864,-0.2493635813395182,
1922,1922,7793,2021-10-05 17:13:21.868,-0.2342732747395833,
1923,1923,7797,2021-10-05 17:13:21.872,-0.2568340301513672,
1924,1924,7801,2021-10-05 17:13:21.876,-0.2320321400960286,
1925,1925,7805,2021-10-05 17:13:21.880,-0.2462259928385416,
1926,1926,7809,2021-10-05 17:13:21.884,-0.2454789479573568,
1927,1927,7813,2021-10-05 17:13:21.888,-0.2167924245198568,
1928,1928,7817,2021-10-05 17:13:21.892,-0.2302392323811849,
1929,1929,7821,2021-10-05 17:13:21.896,-0.2031962076822916,
1930,1930,7825,2021-10-05 17:13:21.900,-0.2164936065673828,
1931,1931,7829,2021-10-05 17:13:21.904,-0.2323309580485026,
1932,1932,7833,2021-10-05 17:13:21.908,-0.2188841501871745,
1933,1933,7837,2021-10-05 17:13:21.912,-0.2409966786702474,
1934,1934,7841,2021-10-05 17:13:21.916,-0.2145512898763021,
1935,1935,7845,2021-10-05 17:13:21.920,-0.2133560180664062,
1936,1936,7849,2021-10-05 17:13:21.924,-0.2179876963297526,
1937,1937,7853,2021-10-05 17:13:21.928,-0.2054373423258463,
1938,1938,7857,2021-10-05 17:13:21.932,-0.2315839131673177,
1939,1939,7861,2021-10-05 17:13:21.936,-0.2075290679931641,
1940,1940,7865,2021-10-05 17:13:21.940,-0.2063337961832682,
1941,1941,7869,2021-10-05 17:13:21.944,-0.207827885945638,
1942,1942,7873,2021-10-05 17:13:21.948,-0.1915423075358073,
1943,1943,7877,2021-10-05 17:13:21.952,-0.2175394694010416,
1944,1944,7881,2021-10-05 17:13:21.956,-0.2014032999674479,
1945,1945,7885,2021-10-05 17:13:21.960,-0.1973692576090495,
1946,1946,7889,2021-10-05 17:13:21.964,-0.2232170104980469,
1947,1947,7893,2021-10-05 17:13:21.968,-0.2093219757080078,
1948,1948,7897,2021-10-05 17:13:21.972,-0.2338250478108724,
1949,1949,7901,2021-10-05 17:13:21.976,-0.2281475067138672,
1950,1950,7905,2021-10-05 17:13:21.980,-0.2233664194742838,
1951,1951,7909,2021-10-05 17:13:21.984,-0.2472718556722005,
1952,1952,7913,2021-10-05 17:13:21.988,-0.2288945515950521,
1953,1953,7917,2021-10-05 17:13:21.992,-0.2529493967692057,
1954,1954,7921,2021-10-05 17:13:21.996,-0.2520529429117839,
1955,1955,7925,2021-10-05 17:13:22.000,-0.2490647633870443,
1956,1956,7929,2021-10-05 17:13:22.004,-0.272372563680013,
1957,1957,7933,2021-10-05 17:13:22.008,-0.2553399403889974,
1958,1958,7937,2021-10-05 17:13:22.012,-0.2755101521809896,
1959,1959,7941,2021-10-05 17:13:22.016,-0.2640056610107422,
1960,1960,7945,2021-10-05 17:13:22.020,-0.2535470326741537,
1961,1961,7949,2021-10-05 17:13:22.024,-0.2686373392740885,
1962,1962,7953,2021-10-05 17:13:22.028,-0.2474212646484375,
1963,1963,7957,2021-10-05 17:13:22.032,-0.2686373392740885,
1964,1964,7961,2021-10-05 17:13:22.036,-0.2572822570800782,
1965,1965,7965,2021-10-05 17:13:22.040,-0.243536631266276,
1966,1966,7969,2021-10-05 17:13:22.044,-0.2489153544108073,
1967,1967,7973,2021-10-05 17:13:22.048,-0.2112642923990885,
1968,1968,7977,2021-10-05 17:13:22.052,-0.2109654744466146,
1969,1969,7981,2021-10-05 17:13:22.056,-0.1919905344645182,
1970,1970,7985,2021-10-05 17:13:22.060,-0.178991953531901,
1971,1971,7989,2021-10-05 17:13:22.064,-0.1930363972981771,
1972,1972,7993,2021-10-05 17:13:22.068,-0.1701768239339192,
1973,1973,7997,2021-10-05 17:13:22.072,-0.1828765869140625,
1974,1974,8001,2021-10-05 17:13:22.076,-0.1703262329101562,
1975,1975,8005,2021-10-05 17:13:22.080,-0.1633040110270182,
1976,1976,8009,2021-10-05 17:13:22.084,-0.1860141754150391,
1977,1977,8013,2021-10-05 17:13:22.088,-0.1709238688151041,
1978,1978,8017,2021-10-05 17:13:22.092,-0.193484624226888,
1979,1979,8021,2021-10-05 17:13:22.096,-0.1893011728922526,
1980,1980,8025,2021-10-05 17:13:22.100,-0.1884047190348307,
1981,1981,8029,2021-10-05 17:13:22.104,-0.2093219757080078,
1982,1982,8033,2021-10-05 17:13:22.108,-0.1904964447021484,
1983,1983,8037,2021-10-05 17:13:22.112,-0.2166430155436198,
1984,1984,8041,2021-10-05 17:13:22.116,-0.2157465616861979,
1985,1985,8045,2021-10-05 17:13:22.120,-0.2099196116129557,
1986,1986,8049,2021-10-05 17:13:22.124,-0.2299404144287109,
1987,1987,8053,2021-10-05 17:13:22.128,-0.2172406514485677,
1988,1988,8057,2021-10-05 17:13:22.132,-0.2417437235514323,
1989,1989,8061,2021-10-05 17:13:22.136,-0.2341238657633463,
1990,1990,8065,2021-10-05 17:13:22.140,-0.2256075541178385,
1991,1991,8069,2021-10-05 17:13:22.144,-0.2429389953613281,
1992,1992,8073,2021-10-05 17:13:22.148,-0.2209758758544922,
1993,1993,8077,2021-10-05 17:13:22.152,-0.2357673645019531,
1994,1994,8081,2021-10-05 17:13:22.156,-0.2271016438802083,
1995,1995,8085,2021-10-05 17:13:22.160,-0.2262051900227865,
1996,1996,8089,2021-10-05 17:13:22.164,-0.243984858194987,
1997,1997,8093,2021-10-05 17:13:22.168,-0.2211252848307291,
1998,1998,8097,2021-10-05 17:13:22.172,-0.2362155914306641,
1999,1999,8101,2021-10-05 17:13:22.176,-0.2230676015218099,
2000,2000,8105,2021-10-05 17:13:22.180,-0.2145512898763021,
2001,2001,8109,2021-10-05 17:13:22.184,-0.2306874593098958,
2002,2002,8113,2021-10-05 17:13:22.188,-0.2124595642089844,
2003,2003,8117,2021-10-05 17:13:22.192,-0.2339744567871094,
2004,2004,8121,2021-10-05 17:13:22.196,-0.2209758758544922,
2005,2005,8125,2021-10-05 17:13:22.200,-0.2144018809000651,
2006,2006,8129,2021-10-05 17:13:22.204,-0.2347215016682943,
2007,2007,8133,2021-10-05 17:13:22.208,-0.2145512898763021,
2008,2008,8137,2021-10-05 17:13:22.212,-0.2321815490722656,
2009,2009,8141,2021-10-05 17:13:22.216,-0.2235158284505208,
2010,2010,8145,2021-10-05 17:13:22.220,-0.2138042449951172,
2011,2011,8149,2021-10-05 17:13:22.224,-0.2276992797851562,
2012,2012,8153,2021-10-05 17:13:22.228,-0.2022997538248698,
2013,2013,8157,2021-10-05 17:13:22.232,-0.2251593271891276,
2014,2014,8161,2021-10-05 17:13:22.236,-0.222320556640625,
2015,2015,8165,2021-10-05 17:13:22.240,-0.2100690205891927,
2016,2016,8169,2021-10-05 17:13:22.244,-0.222021738688151,
2017,2017,8173,2021-10-05 17:13:22.248,-0.1984151204427083,
2018,2018,8177,2021-10-05 17:13:22.252,-0.2284463246663411,
2019,2019,8181,2021-10-05 17:13:22.256,-0.2306874593098958,
2020,2020,8185,2021-10-05 17:13:22.260,-0.2262051900227865,
2021,2021,8189,2021-10-05 17:13:22.264,-0.2403990427652995,
2022,2022,8193,2021-10-05 17:13:22.268,-0.2114137013753255,
2023,2023,8197,2021-10-05 17:13:22.272,-0.2206770579020182,
2024,2024,8201,2021-10-05 17:13:22.276,-0.2097702026367187,
2025,2025,8205,2021-10-05 17:13:22.280,-0.2024491628011068,
2026,2026,8209,2021-10-05 17:13:22.284,-0.2254581451416016,
2027,2027,8213,2021-10-05 17:13:22.288,-0.2094713846842448,
2028,2028,8217,2021-10-05 17:13:22.292,-0.2281475067138672,
2029,2029,8221,2021-10-05 17:13:22.296,-0.2124595642089844,
2030,2030,8225,2021-10-05 17:13:22.300,-0.1988633473714193,
2031,2031,8229,2021-10-05 17:13:22.304,-0.2103678385416666,
2032,2032,8233,2021-10-05 17:13:22.308,-0.1830259958902995,
2033,2033,8237,2021-10-05 17:13:22.312,-0.2036444346110026,
2034,2034,8241,2021-10-05 17:13:22.316,-0.2014032999674479,
2035,2035,8245,2021-10-05 17:13:22.320,-0.1967716217041016,
2036,2036,8249,2021-10-05 17:13:22.324,-0.2227687835693359,
2037,2037,8253,2021-10-05 17:13:22.328,-0.2179876963297526,
2038,2038,8257,2021-10-05 17:13:22.332,-0.2483177185058594,
2039,2039,8261,2021-10-05 17:13:22.336,-0.2486165364583333,
2040,2040,8265,2021-10-05 17:13:22.340,-0.243686040242513,
2041,2041,8269,2021-10-05 17:13:22.344,-0.2592245737711589,
2042,2042,8273,2021-10-05 17:13:22.348,-0.2332274119059245,
2043,2043,8277,2021-10-05 17:13:22.352,-0.2469730377197266,
2044,2044,8281,2021-10-05 17:13:22.356,-0.2342732747395833,
