,Unnamed: 0,Tick Time,RTC Time,ECG,marker
0,0,11,2021-10-07 15:05:14.181,-0.1707744598388672,
1,1,15,2021-10-07 15:05:14.185,-0.2448813120524088,
2,2,19,2021-10-07 15:05:14.189,-0.2259063720703125,
3,3,23,2021-10-07 15:05:14.193,-0.1943810780843099,
4,4,27,2021-10-07 15:05:14.197,-0.2920945485432943,
5,5,31,2021-10-07 15:05:14.201,-0.2118619283040365,
6,6,35,2021-10-07 15:05:14.205,-0.2949333190917969,
7,7,39,2021-10-07 15:05:14.209,-0.27252197265625,
8,8,43,2021-10-07 15:05:14.213,-0.2133560180664062,
9,9,47,2021-10-07 15:05:14.217,-0.279394785563151,
10,10,51,2021-10-07 15:05:14.221,-0.1700274149576823,
11,11,55,2021-10-07 15:05:14.225,-0.2387555440266927,
12,12,59,2021-10-07 15:05:14.229,-0.2218723297119141,
13,13,63,2021-10-07 15:05:14.233,-0.1755555470784505,
14,14,67,2021-10-07 15:05:14.237,-0.2611668904622396,
15,15,71,2021-10-07 15:05:14.241,-0.1637522379557291,
16,16,75,2021-10-07 15:05:14.245,-0.2412954966227213,
17,17,79,2021-10-07 15:05:14.249,-0.2203782399495443,
18,18,83,2021-10-07 15:05:14.253,-0.179141362508138,
19,19,87,2021-10-07 15:05:14.257,-0.2644538879394532,
20,20,91,2021-10-07 15:05:14.261,-0.1630051930745442,
21,21,95,2021-10-07 15:05:14.265,-0.236962636311849,
22,22,99,2021-10-07 15:05:14.269,-0.2203782399495443,
23,23,103,2021-10-07 15:05:14.273,-0.1827271779378255,
24,24,107,2021-10-07 15:05:14.277,-0.2689361572265625,
25,25,111,2021-10-07 15:05:14.281,-0.1685333251953125,
26,26,115,2021-10-07 15:05:14.285,-0.2418931325276693,
27,27,119,2021-10-07 15:05:14.289,-0.2229181925455729,
28,28,123,2021-10-07 15:05:14.293,-0.1846694946289062,
29,29,127,2021-10-07 15:05:14.297,-0.2299404144287109,
30,30,131,2021-10-07 15:05:14.301,-0.0262959798177083,
31,31,135,2021-10-07 15:05:14.305,0.0265947977701822,
32,32,139,2021-10-07 15:05:14.309,0.1139990488688151,
33,33,143,2021-10-07 15:05:14.313,0.1873588562011719,
34,34,147,2021-10-07 15:05:14.317,0.1021957397460937,
35,35,151,2021-10-07 15:05:14.321,0.0936794281005859,
36,36,155,2021-10-07 15:05:14.325,-0.34423828125,
37,37,159,2021-10-07 15:05:14.329,-0.9101994832356772,
38,38,163,2021-10-07 15:05:14.333,-1.3871129353841147,
39,39,167,2021-10-07 15:05:14.337,-1.6382694244384768,
40,40,171,2021-10-07 15:05:14.341,-1.2535413106282554,
41,41,175,2021-10-07 15:05:14.345,-0.7500330607096355,
42,42,179,2021-10-07 15:05:14.349,-0.1813824971516927,
43,43,183,2021-10-07 15:05:14.353,0.2427895863850911,
44,44,187,2021-10-07 15:05:14.357,0.3611214955647787,
45,45,191,2021-10-07 15:05:14.361,0.5326430002848308,
46,46,195,2021-10-07 15:05:14.365,0.4476292928059896,
47,47,199,2021-10-07 15:05:14.369,0.3835328420003255,
48,48,203,2021-10-07 15:05:14.373,0.3024037679036458,
49,49,207,2021-10-07 15:05:14.377,0.078589121500651,
50,50,211,2021-10-07 15:05:14.381,0.0392945607503255,
51,51,215,2021-10-07 15:05:14.385,-0.1399962107340495,
52,52,219,2021-10-07 15:05:14.389,-0.2085749308268229,
53,53,223,2021-10-07 15:05:14.393,-0.2327791849772135,
54,54,227,2021-10-07 15:05:14.397,-0.3639602661132813,
55,55,231,2021-10-07 15:05:14.401,-0.2916463216145833,
56,56,235,2021-10-07 15:05:14.405,-0.3699366251627604,
57,57,239,2021-10-07 15:05:14.409,-0.3496170043945313,
58,58,243,2021-10-07 15:05:14.413,-0.3055413564046224,
59,59,247,2021-10-07 15:05:14.417,-0.3844292958577474,
60,60,251,2021-10-07 15:05:14.421,-0.2843252817789714,
61,61,255,2021-10-07 15:05:14.425,-0.3455829620361328,
62,62,259,2021-10-07 15:05:14.429,-0.3100236256917318,
63,63,263,2021-10-07 15:05:14.433,-0.2492141723632812,
64,64,267,2021-10-07 15:05:14.437,-0.322424570719401,
65,65,271,2021-10-07 15:05:14.441,-0.2121607462565104,
66,66,275,2021-10-07 15:05:14.445,-0.2735678354899089,
67,67,279,2021-10-07 15:05:14.449,-0.2427895863850911,
68,68,283,2021-10-07 15:05:14.453,-0.1924387613932291,
69,69,287,2021-10-07 15:05:14.457,-0.2698326110839844,
70,70,291,2021-10-07 15:05:14.461,-0.172268549601237,
71,71,295,2021-10-07 15:05:14.465,-0.2448813120524088,
72,72,299,2021-10-07 15:05:14.469,-0.222021738688151,
73,73,303,2021-10-07 15:05:14.473,-0.1836236317952474,
74,74,307,2021-10-07 15:05:14.477,-0.2743148803710938,
75,75,311,2021-10-07 15:05:14.481,-0.2069314320882161,
76,76,315,2021-10-07 15:05:14.485,-0.2786477406819662,
77,77,319,2021-10-07 15:05:14.489,-0.2265040079752604,
78,78,323,2021-10-07 15:05:14.493,-0.1585229237874349,
79,79,327,2021-10-07 15:05:14.497,-0.2308368682861328,
80,80,331,2021-10-07 15:05:14.501,-0.1356633504231771,
81,81,335,2021-10-07 15:05:14.505,-0.21514892578125,
82,82,339,2021-10-07 15:05:14.509,-0.2039432525634766,
83,83,343,2021-10-07 15:05:14.513,-0.1804860432942708,
84,84,347,2021-10-07 15:05:14.517,-0.280141830444336,
85,85,351,2021-10-07 15:05:14.521,-0.1906458536783854,
86,86,355,2021-10-07 15:05:14.525,-0.2632586161295573,
87,87,359,2021-10-07 15:05:14.529,-0.2399508158365885,
88,88,363,2021-10-07 15:05:14.533,-0.1966222127278646,
89,89,367,2021-10-07 15:05:14.537,-0.2790959676106771,
90,90,371,2021-10-07 15:05:14.541,-0.1774978637695312,
91,91,375,2021-10-07 15:05:14.545,-0.2487659454345703,
92,92,379,2021-10-07 15:05:14.549,-0.2312850952148437,
93,93,383,2021-10-07 15:05:14.553,-0.1858647664388021,
94,94,387,2021-10-07 15:05:14.557,-0.265350341796875,
95,95,391,2021-10-07 15:05:14.561,-0.164947509765625,
96,96,395,2021-10-07 15:05:14.565,-0.2371120452880859,
97,97,399,2021-10-07 15:05:14.569,-0.2199300130208333,
98,98,403,2021-10-07 15:05:14.573,-0.1827271779378255,
99,99,407,2021-10-07 15:05:14.577,-0.3019555409749349,
100,100,411,2021-10-07 15:05:14.581,-0.1852671305338541,
101,101,415,2021-10-07 15:05:14.585,-0.1901976267496745,
102,102,419,2021-10-07 15:05:14.589,-0.2417437235514323,
103,103,423,2021-10-07 15:05:14.593,-0.1692803700764974,
104,104,427,2021-10-07 15:05:14.597,-0.2831300099690755,
105,105,431,2021-10-07 15:05:14.601,-0.215298334757487,
106,106,435,2021-10-07 15:05:14.605,-0.2342732747395833,
107,107,439,2021-10-07 15:05:14.609,-0.272372563680013,
108,108,443,2021-10-07 15:05:14.613,-0.1851177215576172,
109,109,447,2021-10-07 15:05:14.617,-0.2758089701334635,
110,110,451,2021-10-07 15:05:14.621,-0.1924387613932291,
111,111,455,2021-10-07 15:05:14.625,-0.1996103922526041,
112,112,459,2021-10-07 15:05:14.629,-0.2360661824544271,
113,113,463,2021-10-07 15:05:14.633,-0.1480642954508463,
114,114,467,2021-10-07 15:05:14.637,-0.2530988057454427,
115,115,471,2021-10-07 15:05:14.641,-0.1813824971516927,
116,116,475,2021-10-07 15:05:14.645,-0.1912434895833333,
117,117,479,2021-10-07 15:05:14.649,-0.2341238657633463,
118,118,483,2021-10-07 15:05:14.653,-0.1509030659993489,
119,119,487,2021-10-07 15:05:14.657,-0.2593739827473958,
120,120,491,2021-10-07 15:05:14.661,-0.1901976267496745,
121,121,495,2021-10-07 15:05:14.665,-0.2099196116129557,
122,122,499,2021-10-07 15:05:14.669,-0.2568340301513672,
123,123,503,2021-10-07 15:05:14.673,-0.1745096842447916,
124,124,507,2021-10-07 15:05:14.677,-0.2690855662027995,
125,125,511,2021-10-07 15:05:14.681,-0.1999092102050781,
126,126,515,2021-10-07 15:05:14.685,-0.222021738688151,
127,127,519,2021-10-07 15:05:14.689,-0.2692349751790365,
128,128,523,2021-10-07 15:05:14.693,-0.1837730407714844,
129,129,527,2021-10-07 15:05:14.697,-0.2807394663492839,
130,130,531,2021-10-07 15:05:14.701,-0.2121607462565104,
131,131,535,2021-10-07 15:05:14.705,-0.2321815490722656,
132,132,539,2021-10-07 15:05:14.709,-0.265499750773112,
133,133,543,2021-10-07 15:05:14.713,-0.1689815521240234,
134,134,547,2021-10-07 15:05:14.717,-0.2674420674641927,
135,135,551,2021-10-07 15:05:14.721,-0.2022997538248698,
136,136,555,2021-10-07 15:05:14.725,-0.2164936065673828,
137,137,559,2021-10-07 15:05:14.729,-0.2602704366048177,
138,138,563,2021-10-07 15:05:14.733,-0.1777966817220052,
139,139,567,2021-10-07 15:05:14.737,-0.2750619252522787,
140,140,571,2021-10-07 15:05:14.741,-0.201104482014974,
141,141,575,2021-10-07 15:05:14.745,-0.2133560180664062,
142,142,579,2021-10-07 15:05:14.749,-0.2602704366048177,
143,143,583,2021-10-07 15:05:14.753,-0.1639016469319661,
144,144,587,2021-10-07 15:05:14.757,-0.2545928955078125,
145,145,591,2021-10-07 15:05:14.761,-0.1825777689615885,
146,146,595,2021-10-07 15:05:14.765,-0.2067820231119791,
147,147,599,2021-10-07 15:05:14.769,-0.2533976236979167,
148,148,603,2021-10-07 15:05:14.773,-0.1682345072428385,
149,149,607,2021-10-07 15:05:14.777,-0.2675914764404297,
150,150,611,2021-10-07 15:05:14.781,-0.1940822601318359,
151,151,615,2021-10-07 15:05:14.785,-0.2022997538248698,
152,152,619,2021-10-07 15:05:14.789,-0.251455307006836,
153,153,623,2021-10-07 15:05:14.793,-0.1773484547932942,
154,154,627,2021-10-07 15:05:14.797,-0.272820790608724,
155,155,631,2021-10-07 15:05:14.801,-0.1924387613932291,
156,156,635,2021-10-07 15:05:14.805,-0.1981163024902344,
157,157,639,2021-10-07 15:05:14.809,-0.2457777659098307,
158,158,643,2021-10-07 15:05:14.813,-0.1600170135498047,
159,159,647,2021-10-07 15:05:14.817,-0.2559375762939453,
160,160,651,2021-10-07 15:05:14.821,-0.1854165395100911,
161,161,655,2021-10-07 15:05:14.825,-0.2027479807535807,
162,162,659,2021-10-07 15:05:14.829,-0.2451801300048828,
163,163,663,2021-10-07 15:05:14.833,-0.1595687866210937,
164,164,667,2021-10-07 15:05:14.837,-0.2517541249593099,
165,165,671,2021-10-07 15:05:14.841,-0.1767508188883463,
166,166,675,2021-10-07 15:05:14.845,-0.2018515268961588,
167,167,679,2021-10-07 15:05:14.849,-0.2613162994384766,
168,168,683,2021-10-07 15:05:14.853,-0.1860141754150391,
169,169,687,2021-10-07 15:05:14.857,-0.2892557779947917,
170,170,691,2021-10-07 15:05:14.861,-0.2230676015218099,
171,171,695,2021-10-07 15:05:14.865,-0.2492141723632812,
172,172,699,2021-10-07 15:05:14.869,-0.2994155883789063,
173,173,703,2021-10-07 15:05:14.873,-0.2087243398030599,
174,174,707,2021-10-07 15:05:14.877,-0.2895545959472657,
175,175,711,2021-10-07 15:05:14.881,-0.2017021179199219,
176,176,715,2021-10-07 15:05:14.885,-0.2103678385416666,
177,177,719,2021-10-07 15:05:14.889,-0.2520529429117839,
178,178,723,2021-10-07 15:05:14.893,-0.1670392354329427,
179,179,727,2021-10-07 15:05:14.897,-0.2619139353434245,
180,180,731,2021-10-07 15:05:14.901,-0.1903470357259114,
181,181,735,2021-10-07 15:05:14.905,-0.2069314320882161,
182,182,739,2021-10-07 15:05:14.909,-0.2538458506266276,
183,183,743,2021-10-07 15:05:14.913,-0.1565806070963541,
184,184,747,2021-10-07 15:05:14.917,-0.2462259928385416,
185,185,751,2021-10-07 15:05:14.921,-0.1822789510091146,
186,186,755,2021-10-07 15:05:14.925,-0.2051385243733724,
187,187,759,2021-10-07 15:05:14.929,-0.2502600351969401,
188,188,763,2021-10-07 15:05:14.933,-0.1683839162190755,
189,189,767,2021-10-07 15:05:14.937,-0.2680397033691407,
190,190,771,2021-10-07 15:05:14.941,-0.193335215250651,
191,191,775,2021-10-07 15:05:14.945,-0.2106666564941406,
192,192,779,2021-10-07 15:05:14.949,-0.2626609802246094,
193,193,783,2021-10-07 15:05:14.953,-0.1695791880289713,
194,194,787,2021-10-07 15:05:14.957,-0.2569834391276042,
195,195,791,2021-10-07 15:05:14.961,-0.1512018839518229,
196,196,795,2021-10-07 15:05:14.965,-0.0672340393066406,
197,197,799,2021-10-07 15:05:14.969,0.0150903065999348,
198,198,803,2021-10-07 15:05:14.973,0.1830259958902995,
199,199,807,2021-10-07 15:05:14.977,0.121469497680664,
200,200,811,2021-10-07 15:05:14.981,0.1860141754150391,
201,201,815,2021-10-07 15:05:14.985,0.0694751739501953,
202,202,819,2021-10-07 15:05:14.989,-0.3393077850341797,
203,203,823,2021-10-07 15:05:14.993,-0.818312962849935,
204,204,827,2021-10-07 15:05:14.997,-1.4125124613444011,
205,205,831,2021-10-07 15:05:15.001,-1.5680472056070969,
206,206,835,2021-10-07 15:05:15.005,-1.3388538360595703,
207,207,839,2021-10-07 15:05:15.009,-0.861043930053711,
208,208,843,2021-10-07 15:05:15.013,-0.2396519978841146,
209,209,847,2021-10-07 15:05:15.017,0.0667858123779297,
210,210,851,2021-10-07 15:05:15.021,0.387716293334961,
211,211,855,2021-10-07 15:05:15.025,0.5038070678710939,
212,212,859,2021-10-07 15:05:15.029,0.4833380381266277,
213,213,863,2021-10-07 15:05:15.033,0.4939460754394532,
214,214,867,2021-10-07 15:05:15.037,0.2756595611572266,
215,215,871,2021-10-07 15:05:15.041,0.1982657114664713,
216,216,875,2021-10-07 15:05:15.045,0.0383981068929036,
217,217,879,2021-10-07 15:05:15.049,-0.12908935546875,
218,218,883,2021-10-07 15:05:15.053,-0.1310316721598307,
219,219,887,2021-10-07 15:05:15.057,-0.2926921844482422,
220,220,891,2021-10-07 15:05:15.061,-0.2750619252522787,
221,221,895,2021-10-07 15:05:15.065,-0.3251139322916667,
222,222,899,2021-10-07 15:05:15.069,-0.3830846150716146,
223,223,903,2021-10-07 15:05:15.073,-0.3041966756184896,
224,224,907,2021-10-07 15:05:15.077,-0.4041512807210287,
225,225,911,2021-10-07 15:05:15.081,-0.3215281168619792,
226,226,915,2021-10-07 15:05:15.085,-0.3176434834798177,
227,227,919,2021-10-07 15:05:15.089,-0.3457323710123698,
228,228,923,2021-10-07 15:05:15.093,-0.2516047159830729,
229,229,927,2021-10-07 15:05:15.097,-0.337365468343099,
230,230,931,2021-10-07 15:05:15.101,-0.2517541249593099,
231,231,935,2021-10-07 15:05:15.105,-0.2610174814860026,
232,232,939,2021-10-07 15:05:15.109,-0.3018061319986979,
233,233,943,2021-10-07 15:05:15.113,-0.2025985717773437,
234,234,947,2021-10-07 15:05:15.117,-0.279693603515625,
235,235,951,2021-10-07 15:05:15.121,-0.193634033203125,
236,236,955,2021-10-07 15:05:15.125,-0.2141030629475911,
237,237,959,2021-10-07 15:05:15.129,-0.2602704366048177,
238,238,963,2021-10-07 15:05:15.133,-0.1701768239339192,
239,239,967,2021-10-07 15:05:15.137,-0.2581787109375,
240,240,971,2021-10-07 15:05:15.141,-0.1851177215576172,
241,241,975,2021-10-07 15:05:15.145,-0.2045408884684245,
242,242,979,2021-10-07 15:05:15.149,-0.2483177185058594,
243,243,983,2021-10-07 15:05:15.153,-0.1701768239339192,
244,244,987,2021-10-07 15:05:15.157,-0.2675914764404297,
245,245,991,2021-10-07 15:05:15.161,-0.1922893524169922,
246,246,995,2021-10-07 15:05:15.165,-0.2028973897298177,
247,247,999,2021-10-07 15:05:15.169,-0.2462259928385416,
248,248,1003,2021-10-07 15:05:15.173,-0.1725673675537109,
249,249,1007,2021-10-07 15:05:15.177,-0.279394785563151,
250,250,1011,2021-10-07 15:05:15.181,-0.2063337961832682,
251,251,1015,2021-10-07 15:05:15.185,-0.2215735117594401,
252,252,1019,2021-10-07 15:05:15.189,-0.265200932820638,
253,253,1023,2021-10-07 15:05:15.193,-0.1852671305338541,
254,254,1027,2021-10-07 15:05:15.197,-0.2829806009928385,
255,255,1031,2021-10-07 15:05:15.201,-0.2063337961832682,
256,256,1035,2021-10-07 15:05:15.205,-0.2141030629475911,
257,257,1039,2021-10-07 15:05:15.209,-0.243984858194987,
258,258,1043,2021-10-07 15:05:15.213,-0.1570288340250651,
259,259,1047,2021-10-07 15:05:15.217,-0.2598222096761068,
260,260,1051,2021-10-07 15:05:15.221,-0.1860141754150391,
261,261,1055,2021-10-07 15:05:15.225,-0.2012538909912109,
262,262,1059,2021-10-07 15:05:15.229,-0.2429389953613281,
263,263,1063,2021-10-07 15:05:15.233,-0.1610628763834635,
264,264,1067,2021-10-07 15:05:15.237,-0.2604198455810547,
265,265,1071,2021-10-07 15:05:15.241,-0.1879564921061198,
266,266,1075,2021-10-07 15:05:15.245,-0.2124595642089844,
267,267,1079,2021-10-07 15:05:15.249,-0.2638562520345052,
268,268,1083,2021-10-07 15:05:15.253,-0.1758543650309245,
269,269,1087,2021-10-07 15:05:15.257,-0.2699820200602214,
270,270,1091,2021-10-07 15:05:15.261,-0.2002080281575521,
271,271,1095,2021-10-07 15:05:15.265,-0.2190335591634115,
272,272,1099,2021-10-07 15:05:15.269,-0.2581787109375,
273,273,1103,2021-10-07 15:05:15.273,-0.1797389984130859,
274,274,1107,2021-10-07 15:05:15.277,-0.2780501047770182,
275,275,1111,2021-10-07 15:05:15.281,-0.2040926615397135,
276,276,1115,2021-10-07 15:05:15.285,-0.2196311950683594,
277,277,1119,2021-10-07 15:05:15.289,-0.2523517608642578,
278,278,1123,2021-10-07 15:05:15.293,-0.1610628763834635,
279,279,1127,2021-10-07 15:05:15.297,-0.2619139353434245,
280,280,1131,2021-10-07 15:05:15.301,-0.1940822601318359,
281,281,1135,2021-10-07 15:05:15.305,-0.2088737487792969,
282,282,1139,2021-10-07 15:05:15.309,-0.2402496337890625,
283,283,1143,2021-10-07 15:05:15.313,-0.143582026163737,
284,284,1147,2021-10-07 15:05:15.317,-0.2386061350504557,
285,285,1151,2021-10-07 15:05:15.321,-0.171969731648763,
286,286,1155,2021-10-07 15:05:15.325,-0.200656255086263,
287,287,1159,2021-10-07 15:05:15.329,-0.251455307006836,
288,288,1163,2021-10-07 15:05:15.333,-0.1597181955973307,
289,289,1167,2021-10-07 15:05:15.337,-0.258029301961263,
290,290,1171,2021-10-07 15:05:15.341,-0.1839224497477213,
291,291,1175,2021-10-07 15:05:15.345,-0.208276112874349,
292,292,1179,2021-10-07 15:05:15.349,-0.2605692545572917,
293,293,1183,2021-10-07 15:05:15.353,-0.1807848612467448,
294,294,1187,2021-10-07 15:05:15.357,-0.2819347381591797,
295,295,1191,2021-10-07 15:05:15.361,-0.2127583821614583,
296,296,1195,2021-10-07 15:05:15.365,-0.2320321400960286,
297,297,1199,2021-10-07 15:05:15.369,-0.2707290649414063,
298,298,1203,2021-10-07 15:05:15.373,-0.1819801330566406,
299,299,1207,2021-10-07 15:05:15.377,-0.2735678354899089,
300,300,1211,2021-10-07 15:05:15.381,-0.1984151204427083,
301,301,1215,2021-10-07 15:05:15.385,-0.222619374593099,
302,302,1219,2021-10-07 15:05:15.389,-0.2662467956542969,
303,303,1223,2021-10-07 15:05:15.393,-0.1843706766764323,
304,304,1227,2021-10-07 15:05:15.397,-0.2820841471354167,
305,305,1231,2021-10-07 15:05:15.401,-0.1966222127278646,
306,306,1235,2021-10-07 15:05:15.405,-0.2100690205891927,
307,307,1239,2021-10-07 15:05:15.409,-0.2493635813395182,
308,308,1243,2021-10-07 15:05:15.413,-0.1683839162190755,
309,309,1247,2021-10-07 15:05:15.417,-0.2708784739176432,
310,310,1251,2021-10-07 15:05:15.421,-0.1970704396565755,
311,311,1255,2021-10-07 15:05:15.425,-0.2109654744466146,
312,312,1259,2021-10-07 15:05:15.429,-0.2480189005533854,
313,313,1263,2021-10-07 15:05:15.433,-0.1564311981201172,
314,314,1267,2021-10-07 15:05:15.437,-0.2569834391276042,
315,315,1271,2021-10-07 15:05:15.441,-0.1885541280110677,
316,316,1275,2021-10-07 15:05:15.445,-0.2184359232584635,
317,317,1279,2021-10-07 15:05:15.449,-0.2662467956542969,
318,318,1283,2021-10-07 15:05:15.453,-0.1803366343180338,
319,319,1287,2021-10-07 15:05:15.457,-0.2702808380126953,
320,320,1291,2021-10-07 15:05:15.461,-0.1888529459635416,
321,321,1295,2021-10-07 15:05:15.465,-0.2036444346110026,
322,322,1299,2021-10-07 15:05:15.469,-0.2412954966227213,
323,323,1303,2021-10-07 15:05:15.473,-0.1564311981201172,
324,324,1307,2021-10-07 15:05:15.477,-0.2574316660563151,
325,325,1311,2021-10-07 15:05:15.481,-0.1855659484863281,
326,326,1315,2021-10-07 15:05:15.485,-0.2036444346110026,
327,327,1319,2021-10-07 15:05:15.489,-0.2408472696940104,
328,328,1323,2021-10-07 15:05:15.493,-0.1565806070963541,
329,329,1327,2021-10-07 15:05:15.497,-0.2542940775553385,
330,330,1331,2021-10-07 15:05:15.501,-0.1819801330566406,
331,331,1335,2021-10-07 15:05:15.505,-0.2067820231119791,
332,332,1339,2021-10-07 15:05:15.509,-0.2592245737711589,
333,333,1343,2021-10-07 15:05:15.513,-0.1855659484863281,
334,334,1347,2021-10-07 15:05:15.517,-0.2828311920166016,
335,335,1351,2021-10-07 15:05:15.521,-0.2130572001139323,
336,336,1355,2021-10-07 15:05:15.525,-0.2403990427652995,
337,337,1359,2021-10-07 15:05:15.529,-0.2819347381591797,
338,338,1363,2021-10-07 15:05:15.533,-0.1988633473714193,
339,339,1367,2021-10-07 15:05:15.537,-0.2929910024007162,
340,340,1371,2021-10-07 15:05:15.541,-0.2069314320882161,
341,341,1375,2021-10-07 15:05:15.545,-0.2197806040445963,
342,342,1379,2021-10-07 15:05:15.549,-0.2554893493652344,
343,343,1383,2021-10-07 15:05:15.553,-0.1752567291259766,
344,344,1387,2021-10-07 15:05:15.557,-0.2692349751790365,
345,345,1391,2021-10-07 15:05:15.561,-0.1884047190348307,
346,346,1395,2021-10-07 15:05:15.565,-0.2025985717773437,
347,347,1399,2021-10-07 15:05:15.569,-0.2403990427652995,
348,348,1403,2021-10-07 15:05:15.573,-0.1674874623616536,
349,349,1407,2021-10-07 15:05:15.577,-0.279394785563151,
350,350,1411,2021-10-07 15:05:15.581,-0.2126089731852213,
351,351,1415,2021-10-07 15:05:15.585,-0.1501560211181641,
352,352,1419,2021-10-07 15:05:15.589,-0.2463754018147786,
353,353,1423,2021-10-07 15:05:15.593,-0.164798100789388,
354,354,1427,2021-10-07 15:05:15.597,-0.2429389953613281,
355,355,1431,2021-10-07 15:05:15.601,-0.2206770579020182,
356,356,1435,2021-10-07 15:05:15.605,-0.1782449086507161,
357,357,1439,2021-10-07 15:05:15.609,-0.2625115712483724,
358,358,1443,2021-10-07 15:05:15.613,-0.1715215047200521,
359,359,1447,2021-10-07 15:05:15.617,-0.2462259928385416,
360,360,1451,2021-10-07 15:05:15.621,-0.229193369547526,
361,361,1455,2021-10-07 15:05:15.625,-0.1515007019042969,
362,362,1459,2021-10-07 15:05:15.629,-0.1401456197102864,
363,363,1463,2021-10-07 15:05:15.633,0.0808302561442057,
364,364,1467,2021-10-07 15:05:15.637,0.1132520039876302,
365,365,1471,2021-10-07 15:05:15.641,0.1785437266031901,
366,366,1475,2021-10-07 15:05:15.645,0.2145512898763021,
367,367,1479,2021-10-07 15:05:15.649,0.0248018900553385,
368,368,1483,2021-10-07 15:05:15.653,-0.2447319030761719,
369,369,1487,2021-10-07 15:05:15.657,-0.8809153238932292,
370,370,1491,2021-10-07 15:05:15.661,-1.414604187011719,
371,371,1495,2021-10-07 15:05:15.665,-1.6203403472900393,
372,372,1499,2021-10-07 15:05:15.669,-1.464805603027344,
373,373,1503,2021-10-07 15:05:15.673,-0.8159224192301433,
374,374,1507,2021-10-07 15:05:15.677,-0.286566416422526,
375,375,1511,2021-10-07 15:05:15.681,0.1628557840983073,
376,376,1515,2021-10-07 15:05:15.685,0.4564444224039714,
377,377,1519,2021-10-07 15:05:15.689,0.487820307413737,
378,378,1523,2021-10-07 15:05:15.693,0.5925559997558595,
379,379,1527,2021-10-07 15:05:15.697,0.437618891398112,
380,380,1531,2021-10-07 15:05:15.701,0.3216775258382162,
381,381,1535,2021-10-07 15:05:15.705,0.2106666564941406,
382,382,1539,2021-10-07 15:05:15.709,-0.0179290771484375,
383,383,1543,2021-10-07 15:05:15.713,-0.0484085083007812,
384,384,1547,2021-10-07 15:05:15.717,-0.2141030629475911,
385,385,1551,2021-10-07 15:05:15.721,-0.2592245737711589,
386,386,1555,2021-10-07 15:05:15.725,-0.2695337931315104,
387,387,1559,2021-10-07 15:05:15.729,-0.3886127471923828,
388,388,1563,2021-10-07 15:05:15.733,-0.3167470296223958,
389,389,1567,2021-10-07 15:05:15.737,-0.3954855600992839,
390,390,1571,2021-10-07 15:05:15.741,-0.365753173828125,
391,391,1575,2021-10-07 15:05:15.745,-0.3040472666422526,
392,392,1579,2021-10-07 15:05:15.749,-0.379797617594401,
393,393,1583,2021-10-07 15:05:15.753,-0.2749125162760417,
394,394,1587,2021-10-07 15:05:15.757,-0.3327337900797526,
395,395,1591,2021-10-07 15:05:15.761,-0.294485092163086,
396,396,1595,2021-10-07 15:05:15.765,-0.2444330851236979,
397,397,1599,2021-10-07 15:05:15.769,-0.3180917104085287,
398,398,1603,2021-10-07 15:05:15.773,-0.2096207936604818,
399,399,1607,2021-10-07 15:05:15.777,-0.2719243367513021,
400,400,1611,2021-10-07 15:05:15.781,-0.2427895863850911,
401,401,1615,2021-10-07 15:05:15.785,-0.2008056640625,
402,402,1619,2021-10-07 15:05:15.789,-0.2767054239908854,
403,403,1623,2021-10-07 15:05:15.793,-0.1773484547932942,
404,404,1627,2021-10-07 15:05:15.797,-0.2493635813395182,
405,405,1631,2021-10-07 15:05:15.801,-0.222469965616862,
406,406,1635,2021-10-07 15:05:15.805,-0.1788425445556641,
407,407,1639,2021-10-07 15:05:15.809,-0.2553399403889974,
408,408,1643,2021-10-07 15:05:15.813,-0.1561323801676432,
409,409,1647,2021-10-07 15:05:15.817,-0.2338250478108724,
410,410,1651,2021-10-07 15:05:15.821,-0.2169418334960937,
411,411,1655,2021-10-07 15:05:15.825,-0.1809342702229817,
412,412,1659,2021-10-07 15:05:15.829,-0.2632586161295573,
413,413,1663,2021-10-07 15:05:15.833,-0.1758543650309245,
414,414,1667,2021-10-07 15:05:15.837,-0.2590751647949219,
415,415,1671,2021-10-07 15:05:15.841,-0.2383073170979818,
416,416,1675,2021-10-07 15:05:15.845,-0.1990127563476562,
417,417,1679,2021-10-07 15:05:15.849,-0.2816359202067057,
418,418,1683,2021-10-07 15:05:15.853,-0.1788425445556641,
419,419,1687,2021-10-07 15:05:15.857,-0.2466742197672526,
420,420,1691,2021-10-07 15:05:15.861,-0.222469965616862,
421,421,1695,2021-10-07 15:05:15.865,-0.1946798960367838,
422,422,1699,2021-10-07 15:05:15.869,-0.2816359202067057,
423,423,1703,2021-10-07 15:05:15.873,-0.1818307240804036,
424,424,1707,2021-10-07 15:05:15.877,-0.251156489054362,
425,425,1711,2021-10-07 15:05:15.881,-0.2202288309733073,
426,426,1715,2021-10-07 15:05:15.885,-0.1704756418863932,
427,427,1719,2021-10-07 15:05:15.889,-0.2520529429117839,
428,428,1723,2021-10-07 15:05:15.893,-0.1625569661458333,
429,429,1727,2021-10-07 15:05:15.897,-0.2412954966227213,
430,430,1731,2021-10-07 15:05:15.901,-0.2203782399495443,
431,431,1735,2021-10-07 15:05:15.905,-0.1782449086507161,
432,432,1739,2021-10-07 15:05:15.909,-0.2617645263671875,
433,433,1743,2021-10-07 15:05:15.913,-0.172119140625,
434,434,1747,2021-10-07 15:05:15.917,-0.2517541249593099,
435,435,1751,2021-10-07 15:05:15.921,-0.2323309580485026,
436,436,1755,2021-10-07 15:05:15.925,-0.1948293050130208,
437,437,1759,2021-10-07 15:05:15.929,-0.2747631072998047,
438,438,1763,2021-10-07 15:05:15.933,-0.1752567291259766,
439,439,1767,2021-10-07 15:05:15.937,-0.251156489054362,
440,440,1771,2021-10-07 15:05:15.941,-0.2279980977376302,
441,441,1775,2021-10-07 15:05:15.945,-0.1878070831298828,
442,442,1779,2021-10-07 15:05:15.949,-0.2714761098225912,
443,443,1783,2021-10-07 15:05:15.953,-0.1716709136962891,
444,444,1787,2021-10-07 15:05:15.957,-0.2405484517415365,
445,445,1791,2021-10-07 15:05:15.961,-0.2124595642089844,
446,446,1795,2021-10-07 15:05:15.965,-0.1677862803141276,
447,447,1799,2021-10-07 15:05:15.969,-0.251455307006836,
448,448,1803,2021-10-07 15:05:15.973,-0.1612122853597005,
449,449,1807,2021-10-07 15:05:15.977,-0.2383073170979818,
450,450,1811,2021-10-07 15:05:15.981,-0.2141030629475911,
451,451,1815,2021-10-07 15:05:15.985,-0.1712226867675781,
452,452,1819,2021-10-07 15:05:15.989,-0.258477528889974,
453,453,1823,2021-10-07 15:05:15.993,-0.1634534200032552,
454,454,1827,2021-10-07 15:05:15.997,-0.2417437235514323,
455,455,1831,2021-10-07 15:05:16.001,-0.2278486887613932,
456,456,1835,2021-10-07 15:05:16.005,-0.1951281229654948,
457,457,1839,2021-10-07 15:05:16.009,-0.280141830444336,
458,458,1843,2021-10-07 15:05:16.013,-0.1816813151041666,
459,459,1847,2021-10-07 15:05:16.017,-0.2593739827473958,
460,460,1851,2021-10-07 15:05:16.021,-0.236514409383138,
461,461,1855,2021-10-07 15:05:16.025,-0.1955763498942057,
462,462,1859,2021-10-07 15:05:16.029,-0.2790959676106771,
463,463,1863,2021-10-07 15:05:16.033,-0.1782449086507161,
464,464,1867,2021-10-07 15:05:16.037,-0.2502600351969401,
465,465,1871,2021-10-07 15:05:16.041,-0.229193369547526,
466,466,1875,2021-10-07 15:05:16.045,-0.1906458536783854,
467,467,1879,2021-10-07 15:05:16.049,-0.2768548329671224,
468,468,1883,2021-10-07 15:05:16.053,-0.1857153574625651,
469,469,1887,2021-10-07 15:05:16.057,-0.2589257558186849,
470,470,1891,2021-10-07 15:05:16.061,-0.236663818359375,
471,471,1895,2021-10-07 15:05:16.065,-0.1925881703694661,
472,472,1899,2021-10-07 15:05:16.069,-0.2738666534423828,
473,473,1903,2021-10-07 15:05:16.073,-0.1724179585774739,
474,474,1907,2021-10-07 15:05:16.077,-0.2414449055989583,
475,475,1911,2021-10-07 15:05:16.081,-0.222619374593099,
476,476,1915,2021-10-07 15:05:16.085,-0.1857153574625651,
477,477,1919,2021-10-07 15:05:16.089,-0.2707290649414063,
478,478,1923,2021-10-07 15:05:16.093,-0.1727167765299479,
479,479,1927,2021-10-07 15:05:16.097,-0.2350203196207682,
480,480,1931,2021-10-07 15:05:16.101,-0.2121607462565104,
481,481,1935,2021-10-07 15:05:16.105,-0.1754061381022135,
482,482,1939,2021-10-07 15:05:16.109,-0.2678902943929037,
483,483,1943,2021-10-07 15:05:16.113,-0.1803366343180338,
484,484,1947,2021-10-07 15:05:16.117,-0.2529493967692057,
485,485,1951,2021-10-07 15:05:16.121,-0.229193369547526,
486,486,1955,2021-10-07 15:05:16.125,-0.1907952626546224,
487,487,1959,2021-10-07 15:05:16.129,-0.2713267008463542,
488,488,1963,2021-10-07 15:05:16.133,-0.1643498738606771,
489,489,1967,2021-10-07 15:05:16.137,-0.2235158284505208,
490,490,1971,2021-10-07 15:05:16.141,-0.1945304870605469,
491,491,1975,2021-10-07 15:05:16.145,-0.164798100789388,
492,492,1979,2021-10-07 15:05:16.149,-0.2666950225830078,
493,493,1983,2021-10-07 15:05:16.153,-0.1771990458170573,
494,494,1987,2021-10-07 15:05:16.157,-0.2484671274820963,
495,495,1991,2021-10-07 15:05:16.161,-0.2160453796386719,
496,496,1995,2021-10-07 15:05:16.165,-0.1731650034586588,
497,497,1999,2021-10-07 15:05:16.169,-0.2589257558186849,
498,498,2003,2021-10-07 15:05:16.173,-0.1682345072428385,
499,499,2007,2021-10-07 15:05:16.177,-0.2489153544108073,
500,500,2011,2021-10-07 15:05:16.181,-0.2357673645019531,
501,501,2015,2021-10-07 15:05:16.185,-0.1993115743001302,
502,502,2019,2021-10-07 15:05:16.189,-0.2897040049235026,
503,503,2023,2021-10-07 15:05:16.193,-0.1954269409179687,
504,504,2027,2021-10-07 15:05:16.197,-0.2707290649414063,
505,505,2031,2021-10-07 15:05:16.201,-0.251455307006836,
506,506,2035,2021-10-07 15:05:16.205,-0.2169418334960937,
507,507,2039,2021-10-07 15:05:16.209,-0.301507314046224,
508,508,2043,2021-10-07 15:05:16.213,-0.1942316691080729,
509,509,2047,2021-10-07 15:05:16.217,-0.250857671101888,
510,510,2051,2021-10-07 15:05:16.221,-0.2181371053059896,
511,511,2055,2021-10-07 15:05:16.225,-0.1758543650309245,
512,512,2059,2021-10-07 15:05:16.229,-0.2571328481038412,
513,513,2063,2021-10-07 15:05:16.233,-0.1624075571695963,
514,514,2067,2021-10-07 15:05:16.237,-0.2339744567871094,
515,515,2071,2021-10-07 15:05:16.241,-0.2085749308268229,
516,516,2075,2021-10-07 15:05:16.245,-0.1740614573160807,
517,517,2079,2021-10-07 15:05:16.249,-0.2686373392740885,
518,518,2083,2021-10-07 15:05:16.253,-0.1731650034586588,
519,519,2087,2021-10-07 15:05:16.257,-0.2378590901692708,
520,520,2091,2021-10-07 15:05:16.261,-0.2115631103515625,
521,521,2095,2021-10-07 15:05:16.265,-0.1779460906982422,
522,522,2099,2021-10-07 15:05:16.269,-0.2702808380126953,
523,523,2103,2021-10-07 15:05:16.273,-0.1733144124348958,
524,524,2107,2021-10-07 15:05:16.277,-0.2427895863850911,
525,525,2111,2021-10-07 15:05:16.281,-0.2132066090901693,
526,526,2115,2021-10-07 15:05:16.285,-0.1730155944824219,
527,527,2119,2021-10-07 15:05:16.289,-0.2550411224365235,
528,528,2123,2021-10-07 15:05:16.293,-0.1114590962727864,
529,529,2127,2021-10-07 15:05:16.297,-0.0814278920491536,
530,530,2131,2021-10-07 15:05:16.301,0.0516955057779947,
531,531,2135,2021-10-07 15:05:16.305,0.1665910085042317,
532,532,2139,2021-10-07 15:05:16.309,0.1261011759440104,
533,533,2143,2021-10-07 15:05:16.313,0.2256075541178385,
534,534,2147,2021-10-07 15:05:16.317,0.0422827402750651,
535,535,2151,2021-10-07 15:05:16.321,-0.3546969095865885,
536,536,2155,2021-10-07 15:05:16.325,-0.9424718221028648,
537,537,2159,2021-10-07 15:05:16.329,-1.587769190470378,
538,538,2163,2021-10-07 15:05:16.333,-1.6842873891194663,
539,539,2167,2021-10-07 15:05:16.337,-1.3960774739583337,
540,540,2171,2021-10-07 15:05:16.341,-0.7504812876383464,
541,541,2175,2021-10-07 15:05:16.345,-0.0951735178629557,
542,542,2179,2021-10-07 15:05:16.349,0.2474212646484375,
543,543,2183,2021-10-07 15:05:16.353,0.5568472544352214,
544,544,2187,2021-10-07 15:05:16.357,0.5477333068847657,
545,545,2191,2021-10-07 15:05:16.361,0.5038070678710939,
546,546,2195,2021-10-07 15:05:16.365,0.4267120361328125,
547,547,2199,2021-10-07 15:05:16.369,0.207977294921875,
548,548,2203,2021-10-07 15:05:16.373,0.1606146494547526,
549,549,2207,2021-10-07 15:05:16.377,-0.0422827402750651,
550,550,2211,2021-10-07 15:05:16.381,-0.1341692606608073,
551,551,2215,2021-10-07 15:05:16.385,-0.1843706766764323,
552,552,2219,2021-10-07 15:05:16.389,-0.3304926554361979,
553,553,2223,2021-10-07 15:05:16.393,-0.2752113342285157,
554,554,2227,2021-10-07 15:05:16.397,-0.3635120391845703,
555,555,2231,2021-10-07 15:05:16.401,-0.343939463297526,
556,556,2235,2021-10-07 15:05:16.405,-0.3067366282145182,
557,557,2239,2021-10-07 15:05:16.409,-0.3901068369547527,
558,558,2243,2021-10-07 15:05:16.413,-0.2856699625651042,
559,559,2247,2021-10-07 15:05:16.417,-0.3473758697509766,
560,560,2251,2021-10-07 15:05:16.421,-0.3176434834798177,
561,561,2255,2021-10-07 15:05:16.425,-0.2702808380126953,
562,562,2259,2021-10-07 15:05:16.429,-0.3461805979410807,
563,563,2263,2021-10-07 15:05:16.433,-0.2359167734781901,
564,564,2267,2021-10-07 15:05:16.437,-0.2900028228759766,
565,565,2271,2021-10-07 15:05:16.441,-0.243984858194987,
566,566,2275,2021-10-07 15:05:16.445,-0.193932851155599,
567,567,2279,2021-10-07 15:05:16.449,-0.2761077880859375,
568,568,2283,2021-10-07 15:05:16.453,-0.1824283599853516,
569,569,2287,2021-10-07 15:05:16.457,-0.251455307006836,
570,570,2291,2021-10-07 15:05:16.461,-0.2185853322347005,
571,571,2295,2021-10-07 15:05:16.465,-0.1803366343180338,
572,572,2299,2021-10-07 15:05:16.469,-0.2683385213216146,
573,573,2303,2021-10-07 15:05:16.473,-0.1731650034586588,
574,574,2307,2021-10-07 15:05:16.477,-0.2414449055989583,
575,575,2311,2021-10-07 15:05:16.481,-0.2126089731852213,
576,576,2315,2021-10-07 15:05:16.485,-0.1743602752685547,
577,577,2319,2021-10-07 15:05:16.489,-0.2647527058919271,
578,578,2323,2021-10-07 15:05:16.493,-0.1758543650309245,
579,579,2327,2021-10-07 15:05:16.497,-0.2478694915771484,
580,580,2331,2021-10-07 15:05:16.501,-0.2199300130208333,
581,581,2335,2021-10-07 15:05:16.505,-0.1855659484863281,
582,582,2339,2021-10-07 15:05:16.509,-0.2744642893473307,
583,583,2343,2021-10-07 15:05:16.513,-0.1867612202962239,
584,584,2347,2021-10-07 15:05:16.517,-0.2696832021077474,
585,585,2351,2021-10-07 15:05:16.521,-0.2469730377197266,
586,586,2355,2021-10-07 15:05:16.525,-0.2064832051595052,
587,587,2359,2021-10-07 15:05:16.529,-0.2877616882324219,
588,588,2363,2021-10-07 15:05:16.533,-0.1840718587239583,
589,589,2367,2021-10-07 15:05:16.537,-0.2475706736246745,
590,590,2371,2021-10-07 15:05:16.541,-0.222469965616862,
591,591,2375,2021-10-07 15:05:16.545,-0.1860141754150391,
592,592,2379,2021-10-07 15:05:16.549,-0.2677408854166667,
593,593,2383,2021-10-07 15:05:16.553,-0.1603158315022786,
594,594,2387,2021-10-07 15:05:16.557,-0.2190335591634115,
595,595,2391,2021-10-07 15:05:16.561,-0.1955763498942057,
596,596,2395,2021-10-07 15:05:16.565,-0.1659933725992838,
597,597,2399,2021-10-07 15:05:16.569,-0.2619139353434245,
598,598,2403,2021-10-07 15:05:16.573,-0.172119140625,
599,599,2407,2021-10-07 15:05:16.577,-0.2378590901692708,
600,600,2411,2021-10-07 15:05:16.581,-0.2444330851236979,
601,601,2415,2021-10-07 15:05:16.585,-0.1428349812825521,
602,602,2419,2021-10-07 15:05:16.589,-0.2565352121988932,
603,603,2423,2021-10-07 15:05:16.593,-0.2055867513020833,
604,604,2427,2021-10-07 15:05:16.597,-0.2339744567871094,
605,605,2431,2021-10-07 15:05:16.601,-0.2731196085611979,
606,606,2435,2021-10-07 15:05:16.605,-0.1815319061279297,
607,607,2439,2021-10-07 15:05:16.609,-0.2894051869710287,
608,608,2443,2021-10-07 15:05:16.613,-0.2274004618326823,
609,609,2447,2021-10-07 15:05:16.617,-0.1671886444091797,
610,610,2451,2021-10-07 15:05:16.621,-0.2548917134602865,
611,611,2455,2021-10-07 15:05:16.625,-0.1627063751220703,
612,612,2459,2021-10-07 15:05:16.629,-0.2276992797851562,
613,613,2463,2021-10-07 15:05:16.633,-0.2046902974446615,
614,614,2467,2021-10-07 15:05:16.637,-0.1634534200032552,
615,615,2471,2021-10-07 15:05:16.641,-0.2532482147216797,
616,616,2475,2021-10-07 15:05:16.645,-0.1601664225260416,
617,617,2479,2021-10-07 15:05:16.649,-0.2339744567871094,
618,618,2483,2021-10-07 15:05:16.653,-0.2197806040445963,
619,619,2487,2021-10-07 15:05:16.657,-0.1921399434407552,
620,620,2491,2021-10-07 15:05:16.661,-0.2783489227294922,
621,621,2495,2021-10-07 15:05:16.665,-0.1810836791992187,
622,622,2499,2021-10-07 15:05:16.669,-0.251455307006836,
623,623,2503,2021-10-07 15:05:16.673,-0.222021738688151,
624,624,2507,2021-10-07 15:05:16.677,-0.1825777689615885,
625,625,2511,2021-10-07 15:05:16.681,-0.2693843841552735,
626,626,2515,2021-10-07 15:05:16.685,-0.1763025919596354,
627,627,2519,2021-10-07 15:05:16.689,-0.2522023518880208,
628,628,2523,2021-10-07 15:05:16.693,-0.2332274119059245,
629,629,2527,2021-10-07 15:05:16.697,-0.2015527089436849,
630,630,2531,2021-10-07 15:05:16.701,-0.2913475036621094,
631,631,2535,2021-10-07 15:05:16.705,-0.1982657114664713,
632,632,2539,2021-10-07 15:05:16.709,-0.2629597981770833,
633,633,2543,2021-10-07 15:05:16.713,-0.2311356862386068,
634,634,2547,2021-10-07 15:05:16.717,-0.193783442179362,
635,635,2551,2021-10-07 15:05:16.721,-0.2862675984700521,
636,636,2555,2021-10-07 15:05:16.725,-0.2015527089436849,
637,637,2559,2021-10-07 15:05:16.729,-0.265798568725586,
638,638,2563,2021-10-07 15:05:16.733,-0.215447743733724,
639,639,2567,2021-10-07 15:05:16.737,-0.1562817891438802,
640,640,2571,2021-10-07 15:05:16.741,-0.2392037709554036,
641,641,2575,2021-10-07 15:05:16.745,-0.1485125223795573,
642,642,2579,2021-10-07 15:05:16.749,-0.2262051900227865,
643,643,2583,2021-10-07 15:05:16.753,-0.2118619283040365,
644,644,2587,2021-10-07 15:05:16.757,-0.1713720957438151,
645,645,2591,2021-10-07 15:05:16.761,-0.265798568725586,
646,646,2595,2021-10-07 15:05:16.765,-0.1771990458170573,
647,647,2599,2021-10-07 15:05:16.769,-0.2480189005533854,
648,648,2603,2021-10-07 15:05:16.773,-0.2317333221435547,
649,649,2607,2021-10-07 15:05:16.777,-0.1930363972981771,
650,650,2611,2021-10-07 15:05:16.781,-0.2802912394205729,
651,651,2615,2021-10-07 15:05:16.785,-0.1825777689615885,
652,652,2619,2021-10-07 15:05:16.789,-0.2442836761474609,
653,653,2623,2021-10-07 15:05:16.793,-0.2268028259277344,
654,654,2627,2021-10-07 15:05:16.797,-0.1800378163655599,
655,655,2631,2021-10-07 15:05:16.801,-0.265200932820638,
656,656,2635,2021-10-07 15:05:16.805,-0.1656945546468099,
657,657,2639,2021-10-07 15:05:16.809,-0.2320321400960286,
658,658,2643,2021-10-07 15:05:16.813,-0.2172406514485677,
659,659,2647,2021-10-07 15:05:16.817,-0.1788425445556641,
660,660,2651,2021-10-07 15:05:16.821,-0.2662467956542969,
661,661,2655,2021-10-07 15:05:16.825,-0.1755555470784505,
662,662,2659,2021-10-07 15:05:16.829,-0.2444330851236979,
663,663,2663,2021-10-07 15:05:16.833,-0.2097702026367187,
664,664,2667,2021-10-07 15:05:16.837,-0.1679356892903646,
665,665,2671,2021-10-07 15:05:16.841,-0.2711772918701172,
666,666,2675,2021-10-07 15:05:16.845,-0.1885541280110677,
667,667,2679,2021-10-07 15:05:16.849,-0.2619139353434245,
668,668,2683,2021-10-07 15:05:16.853,-0.2456283569335937,
669,669,2687,2021-10-07 15:05:16.857,-0.2126089731852213,
670,670,2691,2021-10-07 15:05:16.861,-0.301059087117513,
671,671,2695,2021-10-07 15:05:16.865,-0.201104482014974,
672,672,2699,2021-10-07 15:05:16.869,-0.2675914764404297,
673,673,2703,2021-10-07 15:05:16.873,-0.2383073170979818,
674,674,2707,2021-10-07 15:05:16.877,-0.2000586191813151,
675,675,2711,2021-10-07 15:05:16.881,-0.287014643351237,
676,676,2715,2021-10-07 15:05:16.885,-0.1783943176269531,
677,677,2719,2021-10-07 15:05:16.889,-0.2393531799316406,
678,678,2723,2021-10-07 15:05:16.893,-0.2105172475179036,
679,679,2727,2021-10-07 15:05:16.897,-0.1691309611002604,
680,680,2731,2021-10-07 15:05:16.901,-0.2463754018147786,
681,681,2735,2021-10-07 15:05:16.905,-0.1534430185953776,
682,682,2739,2021-10-07 15:05:16.909,-0.2372614542643229,
683,683,2743,2021-10-07 15:05:16.913,-0.222619374593099,
684,684,2747,2021-10-07 15:05:16.917,-0.1828765869140625,
685,685,2751,2021-10-07 15:05:16.921,-0.265051523844401,
686,686,2755,2021-10-07 15:05:16.925,-0.1665910085042317,
687,687,2759,2021-10-07 15:05:16.929,-0.2412954966227213,
688,688,2763,2021-10-07 15:05:16.933,-0.2227687835693359,
689,689,2767,2021-10-07 15:05:16.937,-0.1881059010823567,
690,690,2771,2021-10-07 15:05:16.941,-0.2669938405354818,
691,691,2775,2021-10-07 15:05:16.945,-0.1640510559082031,
692,692,2779,2021-10-07 15:05:16.949,-0.2421919504801432,
693,693,2783,2021-10-07 15:05:16.953,-0.222619374593099,
694,694,2787,2021-10-07 15:05:16.957,-0.1486619313557942,
695,695,2791,2021-10-07 15:05:16.961,-0.136260986328125,
696,696,2795,2021-10-07 15:05:16.965,0.0815773010253906,
697,697,2799,2021-10-07 15:05:16.969,0.0953229268391927,
698,698,2803,2021-10-07 15:05:16.973,0.157626469930013,
699,699,2807,2021-10-07 15:05:16.977,0.2123101552327474,
700,700,2811,2021-10-07 15:05:16.981,0.057074228922526,
701,701,2815,2021-10-07 15:05:16.985,-0.1848189036051432,
702,702,2819,2021-10-07 15:05:16.989,-0.840276082356771,
703,703,2823,2021-10-07 15:05:16.993,-1.4036973317464194,
704,704,2827,2021-10-07 15:05:16.997,-1.6269143422444663,
705,705,2831,2021-10-07 15:05:17.001,-1.477953592936198,
706,706,2835,2021-10-07 15:05:17.005,-0.8268292744954429,
707,707,2839,2021-10-07 15:05:17.009,-0.2834288279215495,
708,708,2843,2021-10-07 15:05:17.013,0.1713720957438151,
709,709,2847,2021-10-07 15:05:17.017,0.4471810658772787,
710,710,2851,2021-10-07 15:05:17.021,0.4555479685465495,
711,711,2855,2021-10-07 15:05:17.025,0.5317465464274089,
712,712,2859,2021-10-07 15:05:17.029,0.3851763407389323,
713,713,2863,2021-10-07 15:05:17.033,0.294335683186849,
714,714,2867,2021-10-07 15:05:17.037,0.2036444346110026,
715,715,2871,2021-10-07 15:05:17.041,-0.0182278951009114,
716,716,2875,2021-10-07 15:05:17.045,-0.0528907775878906,
717,717,2879,2021-10-07 15:05:17.049,-0.2217229207356771,
718,718,2883,2021-10-07 15:05:17.053,-0.2704302469889323,
719,719,2887,2021-10-07 15:05:17.057,-0.2738666534423828,
720,720,2891,2021-10-07 15:05:17.061,-0.3817399342854818,
721,721,2895,2021-10-07 15:05:17.065,-0.2926921844482422,
722,722,2899,2021-10-07 15:05:17.069,-0.3705342610677083,
723,723,2903,2021-10-07 15:05:17.073,-0.3614203135172526,
724,724,2907,2021-10-07 15:05:17.077,-0.315701166788737,
725,725,2911,2021-10-07 15:05:17.081,-0.3720283508300782,
726,726,2915,2021-10-07 15:05:17.085,-0.2577304840087891,
727,727,2919,2021-10-07 15:05:17.089,-0.3148047129313151,
728,728,2923,2021-10-07 15:05:17.093,-0.2822335561116537,
729,729,2927,2021-10-07 15:05:17.097,-0.2332274119059245,
730,730,2931,2021-10-07 15:05:17.101,-0.3076330820719401,
731,731,2935,2021-10-07 15:05:17.105,-0.2037938435872396,
732,732,2939,2021-10-07 15:05:17.109,-0.2632586161295573,
733,733,2943,2021-10-07 15:05:17.113,-0.2326297760009766,
734,734,2947,2021-10-07 15:05:17.117,-0.1976680755615234,
735,735,2951,2021-10-07 15:05:17.121,-0.2813371022542318,
736,736,2955,2021-10-07 15:05:17.125,-0.1797389984130859,
737,737,2959,2021-10-07 15:05:17.129,-0.2502600351969401,
738,738,2963,2021-10-07 15:05:17.133,-0.2212746938069661,
739,739,2967,2021-10-07 15:05:17.137,-0.1474666595458984,
740,740,2971,2021-10-07 15:05:17.141,-0.1854165395100911,
741,741,2975,2021-10-07 15:05:17.145,-0.0983111063639323,
742,742,2979,2021-10-07 15:05:17.149,-0.2206770579020182,
743,743,2983,2021-10-07 15:05:17.153,-0.2498118082682291,
744,744,2987,2021-10-07 15:05:17.157,-0.2377096811930338,
745,745,2991,2021-10-07 15:05:17.161,-0.3276538848876953,
746,746,2995,2021-10-07 15:05:17.165,-0.2302392323811849,
747,747,2999,2021-10-07 15:05:17.169,-0.293738047281901,
748,748,3003,2021-10-07 15:05:17.173,-0.2536964416503907,
749,749,3007,2021-10-07 15:05:17.177,-0.2114137013753255,
750,750,3011,2021-10-07 15:05:17.181,-0.2911980946858724,
751,751,3015,2021-10-07 15:05:17.185,-0.1872094472249349,
752,752,3019,2021-10-07 15:05:17.189,-0.2604198455810547,
753,753,3023,2021-10-07 15:05:17.193,-0.2338250478108724,
754,754,3027,2021-10-07 15:05:17.197,-0.1855659484863281,
755,755,3031,2021-10-07 15:05:17.201,-0.2554893493652344,
756,756,3035,2021-10-07 15:05:17.205,-0.1516501108805338,
757,757,3039,2021-10-07 15:05:17.209,-0.2339744567871094,
758,758,3043,2021-10-07 15:05:17.213,-0.2170912424723307,
759,759,3047,2021-10-07 15:05:17.217,-0.179440180460612,
760,760,3051,2021-10-07 15:05:17.221,-0.258477528889974,
761,761,3055,2021-10-07 15:05:17.225,-0.1549371083577474,
762,762,3059,2021-10-07 15:05:17.229,-0.2178382873535156,
763,763,3063,2021-10-07 15:05:17.233,-0.1975186665852865,
764,764,3067,2021-10-07 15:05:17.237,-0.1695791880289713,
765,765,3071,2021-10-07 15:05:17.241,-0.2563858032226563,
766,766,3075,2021-10-07 15:05:17.245,-0.1658439636230469,
767,767,3079,2021-10-07 15:05:17.249,-0.2493635813395182,
768,768,3083,2021-10-07 15:05:17.253,-0.2330780029296875,
769,769,3087,2021-10-07 15:05:17.257,-0.2049891153971354,
770,770,3091,2021-10-07 15:05:17.261,-0.2898534138997396,
771,771,3095,2021-10-07 15:05:17.265,-0.1901976267496745,
772,772,3099,2021-10-07 15:05:17.269,-0.2460765838623047,
773,773,3103,2021-10-07 15:05:17.273,-0.2161947886149088,
774,774,3107,2021-10-07 15:05:17.277,-0.1860141754150391,
775,775,3111,2021-10-07 15:05:17.281,-0.2781995137532552,
776,776,3115,2021-10-07 15:05:17.285,-0.1806354522705078,
777,777,3119,2021-10-07 15:05:17.289,-0.2386061350504557,
778,778,3123,2021-10-07 15:05:17.293,-0.2040926615397135,
779,779,3127,2021-10-07 15:05:17.297,-0.1697285970052083,
780,780,3131,2021-10-07 15:05:17.301,-0.2613162994384766,
781,781,3135,2021-10-07 15:05:17.305,-0.1701768239339192,
782,782,3139,2021-10-07 15:05:17.309,-0.236813227335612,
783,783,3143,2021-10-07 15:05:17.313,-0.2129077911376953,
784,784,3147,2021-10-07 15:05:17.317,-0.1770496368408203,
785,785,3151,2021-10-07 15:05:17.321,-0.2517541249593099,
786,786,3155,2021-10-07 15:05:17.325,-0.1607640584309896,
787,787,3159,2021-10-07 15:05:17.329,-0.2471224466959635,
788,788,3163,2021-10-07 15:05:17.333,-0.2329285939534505,
789,789,3167,2021-10-07 15:05:17.337,-0.1931858062744141,
790,790,3171,2021-10-07 15:05:17.341,-0.2672926584879557,
791,791,3175,2021-10-07 15:05:17.345,-0.1739120483398437,
792,792,3179,2021-10-07 15:05:17.349,-0.2529493967692057,
793,793,3183,2021-10-07 15:05:17.353,-0.2359167734781901,
794,794,3187,2021-10-07 15:05:17.357,-0.2022997538248698,
795,795,3191,2021-10-07 15:05:17.361,-0.2877616882324219,
796,796,3195,2021-10-07 15:05:17.365,-0.1882553100585937,
797,797,3199,2021-10-07 15:05:17.369,-0.2601210276285807,
798,798,3203,2021-10-07 15:05:17.373,-0.2371120452880859,
799,799,3207,2021-10-07 15:05:17.377,-0.1900482177734375,
800,800,3211,2021-10-07 15:05:17.381,-0.2716255187988282,
801,801,3215,2021-10-07 15:05:17.385,-0.1807848612467448,
802,802,3219,2021-10-07 15:05:17.389,-0.2486165364583333,
803,803,3223,2021-10-07 15:05:17.393,-0.222171147664388,
804,804,3227,2021-10-07 15:05:17.397,-0.18646240234375,
805,805,3231,2021-10-07 15:05:17.401,-0.272970199584961,
806,806,3235,2021-10-07 15:05:17.405,-0.1774978637695312,
807,807,3239,2021-10-07 15:05:17.409,-0.24383544921875,
808,808,3243,2021-10-07 15:05:17.413,-0.2139536539713541,
809,809,3247,2021-10-07 15:05:17.417,-0.1712226867675781,
810,810,3251,2021-10-07 15:05:17.421,-0.2680397033691407,
811,811,3255,2021-10-07 15:05:17.425,-0.1842212677001953,
812,812,3259,2021-10-07 15:05:17.429,-0.2489153544108073,
813,813,3263,2021-10-07 15:05:17.433,-0.2197806040445963,
814,814,3267,2021-10-07 15:05:17.437,-0.1818307240804036,
815,815,3271,2021-10-07 15:05:17.441,-0.2683385213216146,
816,816,3275,2021-10-07 15:05:17.445,-0.1851177215576172,
817,817,3279,2021-10-07 15:05:17.449,-0.2647527058919271,
818,818,3283,2021-10-07 15:05:17.453,-0.2466742197672526,
819,819,3287,2021-10-07 15:05:17.457,-0.193932851155599,
820,820,3291,2021-10-07 15:05:17.461,-0.2530988057454427,
821,821,3295,2021-10-07 15:05:17.465,-0.1547876993815104,
822,822,3299,2021-10-07 15:05:17.469,-0.2248605092366536,
823,823,3303,2021-10-07 15:05:17.473,-0.2043914794921875,
824,824,3307,2021-10-07 15:05:17.477,-0.1763025919596354,
825,825,3311,2021-10-07 15:05:17.481,-0.2672926584879557,
826,826,3315,2021-10-07 15:05:17.485,-0.1725673675537109,
827,827,3319,2021-10-07 15:05:17.489,-0.2333768208821615,
828,828,3323,2021-10-07 15:05:17.493,-0.2087243398030599,
829,829,3327,2021-10-07 15:05:17.497,-0.1667404174804687,
830,830,3331,2021-10-07 15:05:17.501,-0.2545928955078125,
831,831,3335,2021-10-07 15:05:17.505,-0.1688321431477864,
832,832,3339,2021-10-07 15:05:17.509,-0.2375602722167969,
833,833,3343,2021-10-07 15:05:17.513,-0.2241134643554687,
834,834,3347,2021-10-07 15:05:17.517,-0.2022997538248698,
835,835,3351,2021-10-07 15:05:17.521,-0.294186274210612,
836,836,3355,2021-10-07 15:05:17.525,-0.2132066090901693,
837,837,3359,2021-10-07 15:05:17.529,-0.2885087331136068,
838,838,3363,2021-10-07 15:05:17.533,-0.2626609802246094,
839,839,3367,2021-10-07 15:05:17.537,-0.2155971527099609,
840,840,3371,2021-10-07 15:05:17.541,-0.2843252817789714,
841,841,3375,2021-10-07 15:05:17.545,-0.1831754048665364,
842,842,3379,2021-10-07 15:05:17.549,-0.2448813120524088,
843,843,3383,2021-10-07 15:05:17.553,-0.2169418334960937,
844,844,3387,2021-10-07 15:05:17.557,-0.1728661855061849,
845,845,3391,2021-10-07 15:05:17.561,-0.2572822570800782,
846,846,3395,2021-10-07 15:05:17.565,-0.1639016469319661,
847,847,3399,2021-10-07 15:05:17.569,-0.2309862772623698,
848,848,3403,2021-10-07 15:05:17.573,-0.2142524719238281,
849,849,3407,2021-10-07 15:05:17.577,-0.1757049560546875,
850,850,3411,2021-10-07 15:05:17.581,-0.2831300099690755,
851,851,3415,2021-10-07 15:05:17.585,-0.1763025919596354,
852,852,3419,2021-10-07 15:05:17.589,-0.186163584391276,
853,853,3423,2021-10-07 15:05:17.593,-0.2344226837158203,
854,854,3427,2021-10-07 15:05:17.597,-0.1604652404785156,
855,855,3431,2021-10-07 15:05:17.601,-0.2622127532958985,
856,856,3435,2021-10-07 15:05:17.605,-0.2028973897298177,
857,857,3439,2021-10-07 15:05:17.609,-0.2262051900227865,
858,858,3443,2021-10-07 15:05:17.613,-0.265051523844401,
859,859,3447,2021-10-07 15:05:17.617,-0.1840718587239583,
860,860,3451,2021-10-07 15:05:17.621,-0.2396519978841146,
861,861,3455,2021-10-07 15:05:17.625,-0.063947041829427,
862,862,3459,2021-10-07 15:05:17.629,0.0479602813720703,
863,863,3463,2021-10-07 15:05:17.633,0.0894959767659505,
864,864,3467,2021-10-07 15:05:17.637,0.193634033203125,
865,865,3471,2021-10-07 15:05:17.641,0.100253423055013,
866,866,3475,2021-10-07 15:05:17.645,0.0862089792887369,
867,867,3479,2021-10-07 15:05:17.649,-0.2541446685791016,
868,868,3483,2021-10-07 15:05:17.653,-0.8511829376220704,
869,869,3487,2021-10-07 15:05:17.657,-1.299409866333008,
870,870,3491,2021-10-07 15:05:17.661,-1.5921020507812502,
871,871,3495,2021-10-07 15:05:17.665,-1.292686462402344,
872,872,3499,2021-10-07 15:05:17.669,-0.7785701751708985,
873,873,3503,2021-10-07 15:05:17.673,-0.2759583791097005,
874,874,3507,2021-10-07 15:05:17.677,0.1945304870605469,
875,875,3511,2021-10-07 15:05:17.681,0.3219763437906901,
876,876,3515,2021-10-07 15:05:17.685,0.4775110880533855,
877,877,3519,2021-10-07 15:05:17.689,0.4601796468098958,
878,878,3523,2021-10-07 15:05:17.693,0.3540992736816407,
879,879,3527,2021-10-07 15:05:17.697,0.3177928924560547,
880,880,3531,2021-10-07 15:05:17.701,0.0923347473144531,
881,881,3535,2021-10-07 15:05:17.705,0.0276406606038411,
882,882,3539,2021-10-07 15:05:17.709,-0.1068274180094401,
883,883,3543,2021-10-07 15:05:17.713,-0.2323309580485026,
884,884,3547,2021-10-07 15:05:17.717,-0.2124595642089844,
885,885,3551,2021-10-07 15:05:17.721,-0.3393077850341797,
886,886,3555,2021-10-07 15:05:17.725,-0.2928415934244792,
887,887,3559,2021-10-07 15:05:17.729,-0.3257115681966146,
888,888,3563,2021-10-07 15:05:17.733,-0.3721777598063151,
889,889,3567,2021-10-07 15:05:17.737,-0.2934392293294271,
890,890,3571,2021-10-07 15:05:17.741,-0.3814411163330078,
891,891,3575,2021-10-07 15:05:17.745,-0.2995649973551432,
892,892,3579,2021-10-07 15:05:17.749,-0.3021049499511719,
893,893,3583,2021-10-07 15:05:17.753,-0.323171615600586,
894,894,3587,2021-10-07 15:05:17.757,-0.2354685465494791,
895,895,3591,2021-10-07 15:05:17.761,-0.3188387552897135,
896,896,3595,2021-10-07 15:05:17.765,-0.2402496337890625,
897,897,3599,2021-10-07 15:05:17.769,-0.2466742197672526,
898,898,3603,2021-10-07 15:05:17.773,-0.2731196085611979,
899,899,3607,2021-10-07 15:05:17.777,-0.1851177215576172,
900,900,3611,2021-10-07 15:05:17.781,-0.272372563680013,
901,901,3615,2021-10-07 15:05:17.785,-0.1949787139892578,
902,902,3619,2021-10-07 15:05:17.789,-0.2045408884684245,
903,903,3623,2021-10-07 15:05:17.793,-0.2412954966227213,
904,904,3627,2021-10-07 15:05:17.797,-0.1644992828369141,
905,905,3631,2021-10-07 15:05:17.801,-0.2610174814860026,
906,906,3635,2021-10-07 15:05:17.805,-0.1878070831298828,
907,907,3639,2021-10-07 15:05:17.809,-0.2063337961832682,
908,908,3643,2021-10-07 15:05:17.813,-0.2466742197672526,
909,909,3647,2021-10-07 15:05:17.817,-0.172268549601237,
910,910,3651,2021-10-07 15:05:17.821,-0.2686373392740885,
911,911,3655,2021-10-07 15:05:17.825,-0.200506846110026,
912,912,3659,2021-10-07 15:05:17.829,-0.2181371053059896,
913,913,3663,2021-10-07 15:05:17.833,-0.2489153544108073,
914,914,3667,2021-10-07 15:05:17.837,-0.1770496368408203,
915,915,3671,2021-10-07 15:05:17.841,-0.2790959676106771,
916,916,3675,2021-10-07 15:05:17.845,-0.2060349782307943,
917,917,3679,2021-10-07 15:05:17.849,-0.2244122823079427,
918,918,3683,2021-10-07 15:05:17.853,-0.2608680725097657,
919,919,3687,2021-10-07 15:05:17.857,-0.186611811319987,
920,920,3691,2021-10-07 15:05:17.861,-0.2740160624186198,
921,921,3695,2021-10-07 15:05:17.865,-0.1840718587239583,
922,922,3699,2021-10-07 15:05:17.869,-0.1763025919596354,
923,923,3703,2021-10-07 15:05:17.873,-0.2169418334960937,
924,924,3707,2021-10-07 15:05:17.877,-0.1634534200032552,
925,925,3711,2021-10-07 15:05:17.881,-0.2753607432047526,
926,926,3715,2021-10-07 15:05:17.885,-0.2114137013753255,
927,927,3719,2021-10-07 15:05:17.889,-0.2314345041910807,
928,928,3723,2021-10-07 15:05:17.893,-0.2626609802246094,
929,929,3727,2021-10-07 15:05:17.897,-0.1804860432942708,
930,930,3731,2021-10-07 15:05:17.901,-0.272671381632487,
931,931,3735,2021-10-07 15:05:17.905,-0.2106666564941406,
932,932,3739,2021-10-07 15:05:17.909,-0.2617645263671875,
933,933,3743,2021-10-07 15:05:17.913,-0.2992661794026693,
934,934,3747,2021-10-07 15:05:17.917,-0.1842212677001953,
935,935,3751,2021-10-07 15:05:17.921,-0.2384567260742187,
936,936,3755,2021-10-07 15:05:17.925,-0.1492595672607422,
937,937,3759,2021-10-07 15:05:17.929,-0.1688321431477864,
938,938,3763,2021-10-07 15:05:17.933,-0.21514892578125,
939,939,3767,2021-10-07 15:05:17.937,-0.1546382904052734,
940,940,3771,2021-10-07 15:05:17.941,-0.2562363942464193,
941,941,3775,2021-10-07 15:05:17.945,-0.1918411254882812,
942,942,3779,2021-10-07 15:05:17.949,-0.2093219757080078,
943,943,3783,2021-10-07 15:05:17.953,-0.2474212646484375,
944,944,3787,2021-10-07 15:05:17.957,-0.1716709136962891,
945,945,3791,2021-10-07 15:05:17.961,-0.2595233917236328,
946,946,3795,2021-10-07 15:05:17.965,-0.179141362508138,
947,947,3799,2021-10-07 15:05:17.969,-0.1924387613932291,
948,948,3803,2021-10-07 15:05:17.973,-0.2281475067138672,
949,949,3807,2021-10-07 15:05:17.977,-0.1586723327636719,
950,950,3811,2021-10-07 15:05:17.981,-0.2632586161295573,
951,951,3815,2021-10-07 15:05:17.985,-0.2042420705159505,
952,952,3819,2021-10-07 15:05:17.989,-0.2294921875,
953,953,3823,2021-10-07 15:05:17.993,-0.2675914764404297,
954,954,3827,2021-10-07 15:05:17.997,-0.1916917165120443,
955,955,3831,2021-10-07 15:05:18.001,-0.2834288279215495,
956,956,3835,2021-10-07 15:05:18.005,-0.2073796590169271,
957,957,3839,2021-10-07 15:05:18.009,-0.2200794219970703,
958,958,3843,2021-10-07 15:05:18.013,-0.2577304840087891,
959,959,3847,2021-10-07 15:05:18.017,-0.1809342702229817,
960,960,3851,2021-10-07 15:05:18.021,-0.2759583791097005,
961,961,3855,2021-10-07 15:05:18.025,-0.2061843872070312,
962,962,3859,2021-10-07 15:05:18.029,-0.222021738688151,
963,963,3863,2021-10-07 15:05:18.033,-0.2562363942464193,
964,964,3867,2021-10-07 15:05:18.037,-0.1816813151041666,
965,965,3871,2021-10-07 15:05:18.041,-0.2741654713948568,
966,966,3875,2021-10-07 15:05:18.045,-0.2045408884684245,
967,967,3879,2021-10-07 15:05:18.049,-0.222171147664388,
968,968,3883,2021-10-07 15:05:18.053,-0.250708262125651,
969,969,3887,2021-10-07 15:05:18.057,-0.1682345072428385,
970,970,3891,2021-10-07 15:05:18.061,-0.2617645263671875,
971,971,3895,2021-10-07 15:05:18.065,-0.1958751678466797,
972,972,3899,2021-10-07 15:05:18.069,-0.215447743733724,
973,973,3903,2021-10-07 15:05:18.073,-0.243984858194987,
974,974,3907,2021-10-07 15:05:18.077,-0.165096918741862,
975,975,3911,2021-10-07 15:05:18.081,-0.2601210276285807,
976,976,3915,2021-10-07 15:05:18.085,-0.1888529459635416,
977,977,3919,2021-10-07 15:05:18.089,-0.2048397064208984,
978,978,3923,2021-10-07 15:05:18.093,-0.2412954966227213,
979,979,3927,2021-10-07 15:05:18.097,-0.15777587890625,
980,980,3931,2021-10-07 15:05:18.101,-0.2383073170979818,
981,981,3935,2021-10-07 15:05:18.105,-0.1842212677001953,
982,982,3939,2021-10-07 15:05:18.109,-0.2462259928385416,
983,983,3943,2021-10-07 15:05:18.113,-0.3028519948323568,
984,984,3947,2021-10-07 15:05:18.117,-0.214850107828776,
985,985,3951,2021-10-07 15:05:18.121,-0.2790959676106771,
986,986,3955,2021-10-07 15:05:18.125,-0.1840718587239583,
987,987,3959,2021-10-07 15:05:18.129,-0.1960245768229166,
988,988,3963,2021-10-07 15:05:18.133,-0.2288945515950521,
989,989,3967,2021-10-07 15:05:18.137,-0.1558335622151692,
990,990,3971,2021-10-07 15:05:18.141,-0.2516047159830729,
991,991,3975,2021-10-07 15:05:18.145,-0.1773484547932942,
992,992,3979,2021-10-07 15:05:18.149,-0.1918411254882812,
993,993,3983,2021-10-07 15:05:18.153,-0.2263545989990234,
994,994,3987,2021-10-07 15:05:18.157,-0.1580746968587239,
995,995,3991,2021-10-07 15:05:18.161,-0.2649021148681641,
996,996,3995,2021-10-07 15:05:18.165,-0.200656255086263,
997,997,3999,2021-10-07 15:05:18.169,-0.2239640553792318,
998,998,4003,2021-10-07 15:05:18.173,-0.2632586161295573,
999,999,4007,2021-10-07 15:05:18.177,-0.1909446716308594,
1000,1000,4011,2021-10-07 15:05:18.181,-0.2950827280680339,
1001,1001,4015,2021-10-07 15:05:18.185,-0.2387555440266927,
1002,1002,4019,2021-10-07 15:05:18.189,-0.2587763468424479,
1003,1003,4023,2021-10-07 15:05:18.193,-0.2719243367513021,
1004,1004,4027,2021-10-07 15:05:18.197,-0.1807848612467448,
1005,1005,4031,2021-10-07 15:05:18.201,-0.265499750773112,
1006,1006,4035,2021-10-07 15:05:18.205,-0.1906458536783854,
1007,1007,4039,2021-10-07 15:05:18.209,-0.207678476969401,
1008,1008,4043,2021-10-07 15:05:18.213,-0.2406978607177734,
1009,1009,4047,2021-10-07 15:05:18.217,-0.1619593302408854,
1010,1010,4051,2021-10-07 15:05:18.221,-0.2551905314127604,
1011,1011,4055,2021-10-07 15:05:18.225,-0.1879564921061198,
1012,1012,4059,2021-10-07 15:05:18.229,-0.2096207936604818,
1013,1013,4063,2021-10-07 15:05:18.233,-0.2474212646484375,
1014,1014,4067,2021-10-07 15:05:18.237,-0.172119140625,
1015,1015,4071,2021-10-07 15:05:18.241,-0.2626609802246094,
1016,1016,4075,2021-10-07 15:05:18.245,-0.1876576741536458,
1017,1017,4079,2021-10-07 15:05:18.249,-0.207678476969401,
1018,1018,4083,2021-10-07 15:05:18.253,-0.2502600351969401,
1019,1019,4087,2021-10-07 15:05:18.257,-0.1795895894368489,
1020,1020,4091,2021-10-07 15:05:18.261,-0.2675914764404297,
1021,1021,4095,2021-10-07 15:05:18.265,-0.1925881703694661,
1022,1022,4099,2021-10-07 15:05:18.269,-0.2100690205891927,
1023,1023,4103,2021-10-07 15:05:18.273,-0.2501106262207032,
1024,1024,4107,2021-10-07 15:05:18.277,-0.1465702056884766,
1025,1025,4111,2021-10-07 15:05:18.281,-0.1540406545003255,
1026,1026,4115,2021-10-07 15:05:18.285,0.0407886505126953,
1027,1027,4119,2021-10-07 15:05:18.289,0.1163895924886067,
1028,1028,4123,2021-10-07 15:05:18.293,0.1271470387776692,
1029,1029,4127,2021-10-07 15:05:18.297,0.2085749308268229,
1030,1030,4131,2021-10-07 15:05:18.301,0.0579706827799479,
1031,1031,4135,2021-10-07 15:05:18.305,-0.1410420735677083,
1032,1032,4139,2021-10-07 15:05:18.309,-0.6914647420247396,
1033,1033,4143,2021-10-07 15:05:18.313,-1.3016510009765627,
1034,1034,4147,2021-10-07 15:05:18.317,-1.5689436594645183,
1035,1035,4151,2021-10-07 15:05:18.321,-1.5193398793538413,
1036,1036,4155,2021-10-07 15:05:18.325,-0.955022176106771,
1037,1037,4159,2021-10-07 15:05:18.329,-0.3836822509765625,
1038,1038,4163,2021-10-07 15:05:18.333,0.0376510620117187,
1039,1039,4167,2021-10-07 15:05:18.337,0.3963820139567058,
1040,1040,4171,2021-10-07 15:05:18.341,0.4507668813069662,
1041,1041,4175,2021-10-07 15:05:18.345,0.5520661671956381,
1042,1042,4179,2021-10-07 15:05:18.349,0.4772122701009115,
1043,1043,4183,2021-10-07 15:05:18.353,0.322573979695638,
1044,1044,4187,2021-10-07 15:05:18.357,0.2559375762939453,
1045,1045,4191,2021-10-07 15:05:18.361,0.0200208028157552,
1046,1046,4195,2021-10-07 15:05:18.365,-0.0482590993245442,
1047,1047,4199,2021-10-07 15:05:18.369,-0.1712226867675781,
1048,1048,4203,2021-10-07 15:05:18.373,-0.279693603515625,
1049,1049,4207,2021-10-07 15:05:18.377,-0.2522023518880208,
1050,1050,4211,2021-10-07 15:05:18.381,-0.372625986735026,
1051,1051,4215,2021-10-07 15:05:18.385,-0.3209304809570313,
1052,1052,4219,2021-10-07 15:05:18.389,-0.3451347351074219,
1053,1053,4223,2021-10-07 15:05:18.393,-0.3806940714518229,
1054,1054,4227,2021-10-07 15:05:18.397,-0.300909678141276,
1055,1055,4231,2021-10-07 15:05:18.401,-0.3809928894042969,
1056,1056,4235,2021-10-07 15:05:18.405,-0.2962779998779297,
1057,1057,4239,2021-10-07 15:05:18.409,-0.2952321370442708,
1058,1058,4243,2021-10-07 15:05:18.413,-0.3177928924560547,
1059,1059,4247,2021-10-07 15:05:18.417,-0.2274004618326823,
1060,1060,4251,2021-10-07 15:05:18.421,-0.3119659423828125,
1061,1061,4255,2021-10-07 15:05:18.425,-0.2403990427652995,
1062,1062,4259,2021-10-07 15:05:18.429,-0.2532482147216797,
1063,1063,4263,2021-10-07 15:05:18.433,-0.2732690175374349,
1064,1064,4267,2021-10-07 15:05:18.437,-0.18646240234375,
1065,1065,4271,2021-10-07 15:05:18.441,-0.2707290649414063,
1066,1066,4275,2021-10-07 15:05:18.445,-0.1918411254882812,
1067,1067,4279,2021-10-07 15:05:18.449,-0.2049891153971354,
1068,1068,4283,2021-10-07 15:05:18.453,-0.2360661824544271,
1069,1069,4287,2021-10-07 15:05:18.457,-0.1658439636230469,
1070,1070,4291,2021-10-07 15:05:18.461,-0.2647527058919271,
1071,1071,4295,2021-10-07 15:05:18.465,-0.1958751678466797,
1072,1072,4299,2021-10-07 15:05:18.469,-0.2167924245198568,
1073,1073,4303,2021-10-07 15:05:18.473,-0.2481683095296224,
1074,1074,4307,2021-10-07 15:05:18.477,-0.1712226867675781,
1075,1075,4311,2021-10-07 15:05:18.481,-0.265051523844401,
1076,1076,4315,2021-10-07 15:05:18.485,-0.1946798960367838,
1077,1077,4319,2021-10-07 15:05:18.489,-0.2215735117594401,
1078,1078,4323,2021-10-07 15:05:18.493,-0.2566846211751302,
1079,1079,4327,2021-10-07 15:05:18.497,-0.1824283599853516,
1080,1080,4331,2021-10-07 15:05:18.501,-0.2773030598958333,
1081,1081,4335,2021-10-07 15:05:18.505,-0.2015527089436849,
1082,1082,4339,2021-10-07 15:05:18.509,-0.2176888783772786,
1083,1083,4343,2021-10-07 15:05:18.513,-0.251305898030599,
1084,1084,4347,2021-10-07 15:05:18.517,-0.1786931355794271,
1085,1085,4351,2021-10-07 15:05:18.521,-0.2735678354899089,
1086,1086,4355,2021-10-07 15:05:18.525,-0.1957257588704427,
1087,1087,4359,2021-10-07 15:05:18.529,-0.2126089731852213,
1088,1088,4363,2021-10-07 15:05:18.533,-0.2466742197672526,
1089,1089,4367,2021-10-07 15:05:18.537,-0.1704756418863932,
1090,1090,4371,2021-10-07 15:05:18.541,-0.2547423044840495,
1091,1091,4375,2021-10-07 15:05:18.545,-0.1686827341715495,
1092,1092,4379,2021-10-07 15:05:18.549,-0.1810836791992187,
1093,1093,4383,2021-10-07 15:05:18.553,-0.2278486887613932,
1094,1094,4387,2021-10-07 15:05:18.557,-0.1712226867675781,
1095,1095,4391,2021-10-07 15:05:18.561,-0.2790959676106771,
1096,1096,4395,2021-10-07 15:05:18.565,-0.2008056640625,
1097,1097,4399,2021-10-07 15:05:18.569,-0.2120113372802734,
1098,1098,4403,2021-10-07 15:05:18.573,-0.2530988057454427,
1099,1099,4407,2021-10-07 15:05:18.577,-0.1948293050130208,
1100,1100,4411,2021-10-07 15:05:18.581,-0.3049437204996745,
1101,1101,4415,2021-10-07 15:05:18.585,-0.2450307210286458,
1102,1102,4419,2021-10-07 15:05:18.589,-0.1897493998209635,
1103,1103,4423,2021-10-07 15:05:18.593,-0.265649159749349,
1104,1104,4427,2021-10-07 15:05:18.597,-0.1810836791992187,
1105,1105,4431,2021-10-07 15:05:18.601,-0.2522023518880208,
1106,1106,4435,2021-10-07 15:05:18.605,-0.2232170104980469,
1107,1107,4439,2021-10-07 15:05:18.609,-0.186163584391276,
1108,1108,4443,2021-10-07 15:05:18.613,-0.257879892985026,
1109,1109,4447,2021-10-07 15:05:18.617,-0.1561323801676432,
1110,1110,4451,2021-10-07 15:05:18.621,-0.214999516805013,
1111,1111,4455,2021-10-07 15:05:18.625,-0.1875082651774088,
1112,1112,4459,2021-10-07 15:05:18.629,-0.1615111033121745,
1113,1113,4463,2021-10-07 15:05:18.633,-0.2472718556722005,
1114,1114,4467,2021-10-07 15:05:18.637,-0.1633040110270182,
1115,1115,4471,2021-10-07 15:05:18.641,-0.243686040242513,
1116,1116,4475,2021-10-07 15:05:18.645,-0.2190335591634115,
1117,1117,4479,2021-10-07 15:05:18.649,-0.1828765869140625,
1118,1118,4483,2021-10-07 15:05:18.653,-0.258029301961263,
1119,1119,4487,2021-10-07 15:05:18.657,-0.1683839162190755,
1120,1120,4491,2021-10-07 15:05:18.661,-0.2562363942464193,
1121,1121,4495,2021-10-07 15:05:18.665,-0.2402496337890625,
1122,1122,4499,2021-10-07 15:05:18.669,-0.2024491628011068,
1123,1123,4503,2021-10-07 15:05:18.673,-0.2737172444661458,
1124,1124,4507,2021-10-07 15:05:18.677,-0.1834742228190104,
1125,1125,4511,2021-10-07 15:05:18.681,-0.2547423044840495,
1126,1126,4515,2021-10-07 15:05:18.685,-0.2305380503336588,
1127,1127,4519,2021-10-07 15:05:18.689,-0.2014032999674479,
1128,1128,4523,2021-10-07 15:05:18.693,-0.279843012491862,
1129,1129,4527,2021-10-07 15:05:18.697,-0.1918411254882812,
1130,1130,4531,2021-10-07 15:05:18.701,-0.2613162994384766,
1131,1131,4535,2021-10-07 15:05:18.705,-0.229641596476237,
1132,1132,4539,2021-10-07 15:05:18.709,-0.1921399434407552,
1133,1133,4543,2021-10-07 15:05:18.713,-0.2678902943929037,
1134,1134,4547,2021-10-07 15:05:18.717,-0.1810836791992187,
1135,1135,4551,2021-10-07 15:05:18.721,-0.2574316660563151,
1136,1136,4555,2021-10-07 15:05:18.725,-0.2380084991455078,
1137,1137,4559,2021-10-07 15:05:18.729,-0.1997598012288411,
1138,1138,4563,2021-10-07 15:05:18.733,-0.257879892985026,
1139,1139,4567,2021-10-07 15:05:18.737,-0.1586723327636719,
1140,1140,4571,2021-10-07 15:05:18.741,-0.2338250478108724,
1141,1141,4575,2021-10-07 15:05:18.745,-0.2276992797851562,
1142,1142,4579,2021-10-07 15:05:18.749,-0.2102184295654297,
1143,1143,4583,2021-10-07 15:05:18.753,-0.2950827280680339,
1144,1144,4587,2021-10-07 15:05:18.757,-0.1852671305338541,
1145,1145,4591,2021-10-07 15:05:18.761,-0.2386061350504557,
1146,1146,4595,2021-10-07 15:05:18.765,-0.2042420705159505,
1147,1147,4599,2021-10-07 15:05:18.769,-0.1707744598388672,
1148,1148,4603,2021-10-07 15:05:18.773,-0.2623621622721354,
1149,1149,4607,2021-10-07 15:05:18.777,-0.1716709136962891,
1150,1150,4611,2021-10-07 15:05:18.781,-0.2320321400960286,
1151,1151,4615,2021-10-07 15:05:18.785,-0.2046902974446615,
1152,1152,4619,2021-10-07 15:05:18.789,-0.1727167765299479,
1153,1153,4623,2021-10-07 15:05:18.793,-0.2520529429117839,
1154,1154,4627,2021-10-07 15:05:18.797,-0.1615111033121745,
1155,1155,4631,2021-10-07 15:05:18.801,-0.2351697285970052,
1156,1156,4635,2021-10-07 15:05:18.805,-0.2284463246663411,
1157,1157,4639,2021-10-07 15:05:18.809,-0.2118619283040365,
1158,1158,4643,2021-10-07 15:05:18.813,-0.294485092163086,Start
1159,1159,4647,2021-10-07 15:05:18.817,-0.2099196116129557,
1160,1160,4651,2021-10-07 15:05:18.821,-0.280141830444336,
1161,1161,4655,2021-10-07 15:05:18.825,-0.2442836761474609,
1162,1162,4659,2021-10-07 15:05:18.829,-0.1954269409179687,
1163,1163,4663,2021-10-07 15:05:18.833,-0.2756595611572266,
1164,1164,4667,2021-10-07 15:05:18.837,-0.1916917165120443,
1165,1165,4671,2021-10-07 15:05:18.841,-0.2505588531494141,
1166,1166,4675,2021-10-07 15:05:18.845,-0.215447743733724,
1167,1167,4679,2021-10-07 15:05:18.849,-0.1704756418863932,
1168,1168,4683,2021-10-07 15:05:18.853,-0.2523517608642578,
1169,1169,4687,2021-10-07 15:05:18.857,-0.1591205596923828,
1170,1170,4691,2021-10-07 15:05:18.861,-0.2284463246663411,
1171,1171,4695,2021-10-07 15:05:18.865,-0.215298334757487,
1172,1172,4699,2021-10-07 15:05:18.869,-0.193335215250651,
1173,1173,4703,2021-10-07 15:05:18.873,-0.2771536509195964,
1174,1174,4707,2021-10-07 15:05:18.877,-0.1683839162190755,
1175,1175,4711,2021-10-07 15:05:18.881,-0.2209758758544922,
1176,1176,4715,2021-10-07 15:05:18.885,-0.2021503448486328,
1177,1177,4719,2021-10-07 15:05:18.889,-0.1713720957438151,
1178,1178,4723,2021-10-07 15:05:18.893,-0.2587763468424479,
1179,1179,4727,2021-10-07 15:05:18.897,-0.1703262329101562,
1180,1180,4731,2021-10-07 15:05:18.901,-0.2447319030761719,
1181,1181,4735,2021-10-07 15:05:18.905,-0.222021738688151,
1182,1182,4739,2021-10-07 15:05:18.909,-0.1810836791992187,
1183,1183,4743,2021-10-07 15:05:18.913,-0.2590751647949219,
1184,1184,4747,2021-10-07 15:05:18.917,-0.1695791880289713,
1185,1185,4751,2021-10-07 15:05:18.921,-0.2272510528564453,
1186,1186,4755,2021-10-07 15:05:18.925,-0.1434326171875,
1187,1187,4759,2021-10-07 15:05:18.929,0.0201702117919921,
1188,1188,4763,2021-10-07 15:05:18.933,0.0675328572591145,
1189,1189,4767,2021-10-07 15:05:18.937,0.2276992797851562,
1190,1190,4771,2021-10-07 15:05:18.941,0.1727167765299479,
1191,1191,4775,2021-10-07 15:05:18.945,0.1226647694905599,
1192,1192,4779,2021-10-07 15:05:18.949,-0.1015981038411458,
1193,1193,4783,2021-10-07 15:05:18.953,-0.7053597768147787,
1194,1194,4787,2021-10-07 15:05:18.957,-1.2181313832600913,
1195,1195,4791,2021-10-07 15:05:18.961,-1.6774145762125654,
1196,1196,4795,2021-10-07 15:05:18.965,-1.6091346740722658,
1197,1197,4799,2021-10-07 15:05:18.969,-1.0856056213378908,
1198,1198,4803,2021-10-07 15:05:18.973,-0.5317465464274089,
1199,1199,4807,2021-10-07 15:05:18.977,0.0812784830729166,
1200,1200,4811,2021-10-07 15:05:18.981,0.3393077850341797,
1201,1201,4815,2021-10-07 15:05:18.985,0.5250231424967449,
1202,1202,4819,2021-10-07 15:05:18.989,0.616909662882487,
1203,1203,4823,2021-10-07 15:05:18.993,0.4966354370117188,
1204,1204,4827,2021-10-07 15:05:18.997,0.466604232788086,
1205,1205,4831,2021-10-07 15:05:19.001,0.2447319030761719,
1206,1206,4835,2021-10-07 15:05:19.005,0.1023451487223307,
1207,1207,4839,2021-10-07 15:05:19.009,-0.0073210398356119,
1208,1208,4843,2021-10-07 15:05:19.013,-0.1981163024902344,
1209,1209,4847,2021-10-07 15:05:19.017,-0.1925881703694661,
1210,1210,4851,2021-10-07 15:05:19.021,-0.322872797648112,
1211,1211,4855,2021-10-07 15:05:19.025,-0.337514877319336,
1212,1212,4859,2021-10-07 15:05:19.029,-0.3237692515055339,
1213,1213,4863,2021-10-07 15:05:19.033,-0.4098288218180339,
1214,1214,4867,2021-10-07 15:05:19.037,-0.3192869822184245,
1215,1215,4871,2021-10-07 15:05:19.041,-0.3784529368082682,
1216,1216,4875,2021-10-07 15:05:19.045,-0.3467782338460287,
1217,1217,4879,2021-10-07 15:05:19.049,-0.3007602691650391,
1218,1218,4883,2021-10-07 15:05:19.053,-0.3691895802815755,
1219,1219,4887,2021-10-07 15:05:19.057,-0.2662467956542969,
1220,1220,4891,2021-10-07 15:05:19.061,-0.3222751617431641,
1221,1221,4895,2021-10-07 15:05:19.065,-0.2829806009928385,
1222,1222,4899,2021-10-07 15:05:19.069,-0.229342778523763,
1223,1223,4903,2021-10-07 15:05:19.073,-0.2976226806640625,
1224,1224,4907,2021-10-07 15:05:19.077,-0.2008056640625,
1225,1225,4911,2021-10-07 15:05:19.081,-0.2666950225830078,
1226,1226,4915,2021-10-07 15:05:19.085,-0.236514409383138,
1227,1227,4919,2021-10-07 15:05:19.089,-0.1875082651774088,
1228,1228,4923,2021-10-07 15:05:19.093,-0.2613162994384766,
1229,1229,4927,2021-10-07 15:05:19.097,-0.1713720957438151,
1230,1230,4931,2021-10-07 15:05:19.101,-0.2398014068603516,
1231,1231,4935,2021-10-07 15:05:19.105,-0.215298334757487,
1232,1232,4939,2021-10-07 15:05:19.109,-0.1740614573160807,
1233,1233,4943,2021-10-07 15:05:19.113,-0.2532482147216797,
1234,1234,4947,2021-10-07 15:05:19.117,-0.1652463277180989,
1235,1235,4951,2021-10-07 15:05:19.121,-0.2401002248128255,
1236,1236,4955,2021-10-07 15:05:19.125,-0.2173900604248047,
1237,1237,4959,2021-10-07 15:05:19.129,-0.1757049560546875,
1238,1238,4963,2021-10-07 15:05:19.133,-0.2542940775553385,
1239,1239,4967,2021-10-07 15:05:19.137,-0.1800378163655599,
1240,1240,4971,2021-10-07 15:05:19.141,-0.2735678354899089,
1241,1241,4975,2021-10-07 15:05:19.145,-0.2557881673177083,
1242,1242,4979,2021-10-07 15:05:19.149,-0.2114137013753255,
1243,1243,4983,2021-10-07 15:05:19.153,-0.279544194539388,
1244,1244,4987,2021-10-07 15:05:19.157,-0.1780954996744791,
1245,1245,4991,2021-10-07 15:05:19.161,-0.2502600351969401,
1246,1246,4995,2021-10-07 15:05:19.165,-0.2338250478108724,
1247,1247,4999,2021-10-07 15:05:19.169,-0.1994609832763672,
1248,1248,5003,2021-10-07 15:05:19.173,-0.2737172444661458,
1249,1249,5007,2021-10-07 15:05:19.177,-0.1748085021972656,
1250,1250,5011,2021-10-07 15:05:19.181,-0.2399508158365885,
1251,1251,5015,2021-10-07 15:05:19.185,-0.214999516805013,
1252,1252,5019,2021-10-07 15:05:19.189,-0.1764520009358724,
1253,1253,5023,2021-10-07 15:05:19.193,-0.2527999877929688,
1254,1254,5027,2021-10-07 15:05:19.197,-0.1665910085042317,
1255,1255,5031,2021-10-07 15:05:19.201,-0.2448813120524088,
1256,1256,5035,2021-10-07 15:05:19.205,-0.2248605092366536,
1257,1257,5039,2021-10-07 15:05:19.209,-0.1867612202962239,
1258,1258,5043,2021-10-07 15:05:19.213,-0.2590751647949219,
1259,1259,5047,2021-10-07 15:05:19.217,-0.1662921905517578,
1260,1260,5051,2021-10-07 15:05:19.221,-0.243984858194987,
1261,1261,5055,2021-10-07 15:05:19.225,-0.2309862772623698,
1262,1262,5059,2021-10-07 15:05:19.229,-0.2018515268961588,
1263,1263,5063,2021-10-07 15:05:19.233,-0.279544194539388,
1264,1264,5067,2021-10-07 15:05:19.237,-0.1845200856526692,
1265,1265,5071,2021-10-07 15:05:19.241,-0.251455307006836,
1266,1266,5075,2021-10-07 15:05:19.245,-0.2245616912841797,
1267,1267,5079,2021-10-07 15:05:19.249,-0.1870600382486979,
1268,1268,5083,2021-10-07 15:05:19.253,-0.2625115712483724,
1269,1269,5087,2021-10-07 15:05:19.257,-0.1630051930745442,
1270,1270,5091,2021-10-07 15:05:19.261,-0.2260557810465495,
1271,1271,5095,2021-10-07 15:05:19.265,-0.2003574371337891,
1272,1272,5099,2021-10-07 15:05:19.269,-0.1676368713378906,
1273,1273,5103,2021-10-07 15:05:19.273,-0.2477200826009115,
1274,1274,5107,2021-10-07 15:05:19.277,-0.1489607493082682,
1275,1275,5111,2021-10-07 15:05:19.281,-0.2247111002604166,
1276,1276,5115,2021-10-07 15:05:19.285,-0.2097702026367187,
1277,1277,5119,2021-10-07 15:05:19.289,-0.1801872253417969,
1278,1278,5123,2021-10-07 15:05:19.293,-0.2660973866780599,
1279,1279,5127,2021-10-07 15:05:19.297,-0.1801872253417969,
1280,1280,5131,2021-10-07 15:05:19.301,-0.2432378133138021,
1281,1281,5135,2021-10-07 15:05:19.305,-0.2109654744466146,
1282,1282,5139,2021-10-07 15:05:19.309,-0.1798884073893229,
1283,1283,5143,2021-10-07 15:05:19.313,-0.2767054239908854,
1284,1284,5147,2021-10-07 15:05:19.317,-0.2017021179199219,
1285,1285,5151,2021-10-07 15:05:19.321,-0.2675914764404297,
1286,1286,5155,2021-10-07 15:05:19.325,-0.2378590901692708,
1287,1287,5159,2021-10-07 15:05:19.329,-0.1976680755615234,
1288,1288,5163,2021-10-07 15:05:19.333,-0.2792453765869141,
1289,1289,5167,2021-10-07 15:05:19.337,-0.1930363972981771,
1290,1290,5171,2021-10-07 15:05:19.341,-0.2614657084147135,
1291,1291,5175,2021-10-07 15:05:19.345,-0.2398014068603516,
1292,1292,5179,2021-10-07 15:05:19.349,-0.1985645294189453,
1293,1293,5183,2021-10-07 15:05:19.353,-0.2668444315592448,
1294,1294,5187,2021-10-07 15:05:19.357,-0.1688321431477864,
1295,1295,5191,2021-10-07 15:05:19.361,-0.2466742197672526,
1296,1296,5195,2021-10-07 15:05:19.365,-0.2271016438802083,
1297,1297,5199,2021-10-07 15:05:19.369,-0.193932851155599,
1298,1298,5203,2021-10-07 15:05:19.373,-0.2765560150146485,
1299,1299,5207,2021-10-07 15:05:19.377,-0.1881059010823567,
1300,1300,5211,2021-10-07 15:05:19.381,-0.2575810750325521,
1301,1301,5215,2021-10-07 15:05:19.385,-0.2254581451416016,
1302,1302,5219,2021-10-07 15:05:19.389,-0.1855659484863281,
1303,1303,5223,2021-10-07 15:05:19.393,-0.2611668904622396,
1304,1304,5227,2021-10-07 15:05:19.397,-0.1639016469319661,
1305,1305,5231,2021-10-07 15:05:19.401,-0.2324803670247396,
1306,1306,5235,2021-10-07 15:05:19.405,-0.2111148834228516,
1307,1307,5239,2021-10-07 15:05:19.409,-0.1777966817220052,
1308,1308,5243,2021-10-07 15:05:19.413,-0.258626937866211,
1309,1309,5247,2021-10-07 15:05:19.417,-0.1613616943359375,
1310,1310,5251,2021-10-07 15:05:19.421,-0.2317333221435547,
1311,1311,5255,2021-10-07 15:05:19.425,-0.2073796590169271,
1312,1312,5259,2021-10-07 15:05:19.429,-0.1737626393636067,
1313,1313,5263,2021-10-07 15:05:19.433,-0.2547423044840495,
1314,1314,5267,2021-10-07 15:05:19.437,-0.1674874623616536,
1315,1315,5271,2021-10-07 15:05:19.441,-0.2456283569335937,
1316,1316,5275,2021-10-07 15:05:19.445,-0.2229181925455729,
1317,1317,5279,2021-10-07 15:05:19.449,-0.1913928985595703,
1318,1318,5283,2021-10-07 15:05:19.453,-0.2846240997314453,
1319,1319,5287,2021-10-07 15:05:19.457,-0.2002080281575521,
1320,1320,5291,2021-10-07 15:05:19.461,-0.2780501047770182,
1321,1321,5295,2021-10-07 15:05:19.465,-0.2619139353434245,
1322,1322,5299,2021-10-07 15:05:19.469,-0.2193323771158854,
1323,1323,5303,2021-10-07 15:05:19.473,-0.2904510498046875,
1324,1324,5307,2021-10-07 15:05:19.477,-0.1854165395100911,
1325,1325,5311,2021-10-07 15:05:19.481,-0.2444330851236979,
1326,1326,5315,2021-10-07 15:05:19.485,-0.222619374593099,
1327,1327,5319,2021-10-07 15:05:19.489,-0.1843706766764323,
1328,1328,5323,2021-10-07 15:05:19.493,-0.2626609802246094,
1329,1329,5327,2021-10-07 15:05:19.497,-0.1670392354329427,
1330,1330,5331,2021-10-07 15:05:19.501,-0.2320321400960286,
1331,1331,5335,2021-10-07 15:05:19.505,-0.2045408884684245,
1332,1332,5339,2021-10-07 15:05:19.509,-0.1625569661458333,
1333,1333,5343,2021-10-07 15:05:19.513,-0.2462259928385416,
1334,1334,5347,2021-10-07 15:05:19.517,-0.1624075571695963,
1335,1335,5351,2021-10-07 15:05:19.521,-0.2411460876464844,
1336,1336,5355,2021-10-07 15:05:19.525,-0.2238146464029948,
1337,1337,5359,2021-10-07 15:05:19.529,-0.1828765869140625,
1338,1338,5363,2021-10-07 15:05:19.533,-0.265649159749349,
1339,1339,5367,2021-10-07 15:05:19.537,-0.1797389984130859,
1340,1340,5371,2021-10-07 15:05:19.541,-0.2545928955078125,
1341,1341,5375,2021-10-07 15:05:19.545,-0.229193369547526,
1342,1342,5379,2021-10-07 15:05:19.549,-0.1903470357259114,
1343,1343,5383,2021-10-07 15:05:19.553,-0.2644538879394532,
1344,1344,5387,2021-10-07 15:05:19.557,-0.1377550760904948,
1345,1345,5391,2021-10-07 15:05:19.561,-0.1180330912272135,
1346,1346,5395,2021-10-07 15:05:19.565,0.0267442067464192,
1347,1347,5399,2021-10-07 15:05:19.569,0.157925287882487,
1348,1348,5403,2021-10-07 15:05:19.573,0.1304340362548828,
1349,1349,5407,2021-10-07 15:05:19.577,0.2306874593098958,
1350,1350,5411,2021-10-07 15:05:19.581,0.0862089792887369,
1351,1351,5415,2021-10-07 15:05:19.585,-0.2629597981770833,
1352,1352,5419,2021-10-07 15:05:19.589,-0.7661692301432292,
1353,1353,5423,2021-10-07 15:05:19.593,-1.44373893737793,
1354,1354,5427,2021-10-07 15:05:19.597,-1.6910107930501304,
1355,1355,5431,2021-10-07 15:05:19.601,-1.4824358622233074,
1356,1356,5435,2021-10-07 15:05:19.605,-0.932461420694987,
1357,1357,5439,2021-10-07 15:05:19.609,-0.2259063720703125,
1358,1358,5443,2021-10-07 15:05:19.613,0.1458231608072916,
1359,1359,5447,2021-10-07 15:05:19.617,0.480648676554362,
1360,1360,5451,2021-10-07 15:05:19.621,0.5752245585123699,
1361,1361,5455,2021-10-07 15:05:19.625,0.5281607309977214,
1362,1362,5459,2021-10-07 15:05:19.629,0.5045541127522787,
1363,1363,5463,2021-10-07 15:05:19.633,0.2714761098225912,
1364,1364,5467,2021-10-07 15:05:19.637,0.2021503448486328,
1365,1365,5471,2021-10-07 15:05:19.641,0.0457191467285156,
1366,1366,5475,2021-10-07 15:05:19.645,-0.1183319091796875,
1367,1367,5479,2021-10-07 15:05:19.649,-0.1449267069498698,
1368,1368,5483,2021-10-07 15:05:19.653,-0.3043460845947266,
1369,1369,5487,2021-10-07 15:05:19.657,-0.2850723266601563,
1370,1370,5491,2021-10-07 15:05:19.661,-0.3411006927490235,
1371,1371,5495,2021-10-07 15:05:19.665,-0.3996690114339193,
1372,1372,5499,2021-10-07 15:05:19.669,-0.3251139322916667,
1373,1373,5503,2021-10-07 15:05:19.673,-0.4029560089111328,
1374,1374,5507,2021-10-07 15:05:19.677,-0.3134600321451823,
1375,1375,5511,2021-10-07 15:05:19.681,-0.3236198425292969,
1376,1376,5515,2021-10-07 15:05:19.685,-0.3496170043945313,
1377,1377,5519,2021-10-07 15:05:19.689,-0.2625115712483724,
1378,1378,5523,2021-10-07 15:05:19.693,-0.337216059366862,
1379,1379,5527,2021-10-07 15:05:19.697,-0.2417437235514323,
1380,1380,5531,2021-10-07 15:05:19.701,-0.2481683095296224,
1381,1381,5535,2021-10-07 15:05:19.705,-0.2861181894938151,
1382,1382,5539,2021-10-07 15:05:19.709,-0.207977294921875,
1383,1383,5543,2021-10-07 15:05:19.713,-0.294036865234375,
1384,1384,5547,2021-10-07 15:05:19.717,-0.208276112874349,
1385,1385,5551,2021-10-07 15:05:19.721,-0.2236652374267578,
1386,1386,5555,2021-10-07 15:05:19.725,-0.2490647633870443,
1387,1387,5559,2021-10-07 15:05:19.729,-0.172268549601237,
1388,1388,5563,2021-10-07 15:05:19.733,-0.2613162994384766,
1389,1389,5567,2021-10-07 15:05:19.737,-0.1803366343180338,
1390,1390,5571,2021-10-07 15:05:19.741,-0.193335215250651,
1391,1391,5575,2021-10-07 15:05:19.745,-0.136111577351888,
1392,1392,5579,2021-10-07 15:05:19.749,-0.0452709197998046,
1393,1393,5583,2021-10-07 15:05:19.753,-0.2164936065673828,
1394,1394,5587,2021-10-07 15:05:19.757,-0.2377096811930338,
1395,1395,5591,2021-10-07 15:05:19.761,-0.3110694885253907,
1396,1396,5595,2021-10-07 15:05:19.765,-0.3560415903727214,
1397,1397,5599,2021-10-07 15:05:19.769,-0.2619139353434245,
1398,1398,5603,2021-10-07 15:05:19.773,-0.3337796529134115,
1399,1399,5607,2021-10-07 15:05:19.777,-0.2324803670247396,
1400,1400,5611,2021-10-07 15:05:19.781,-0.2351697285970052,
1401,1401,5615,2021-10-07 15:05:19.785,-0.2596728006998698,
1402,1402,5619,2021-10-07 15:05:19.789,-0.1828765869140625,
1403,1403,5623,2021-10-07 15:05:19.793,-0.2764066060384115,
1404,1404,5627,2021-10-07 15:05:19.797,-0.1925881703694661,
1405,1405,5631,2021-10-07 15:05:19.801,-0.2036444346110026,
1406,1406,5635,2021-10-07 15:05:19.805,-0.236813227335612,
1407,1407,5639,2021-10-07 15:05:19.809,-0.1585229237874349,
1408,1408,5643,2021-10-07 15:05:19.813,-0.2445824940999349,
1409,1409,5647,2021-10-07 15:05:19.817,-0.1601664225260416,
1410,1410,5651,2021-10-07 15:05:19.821,-0.1795895894368489,
1411,1411,5655,2021-10-07 15:05:19.825,-0.2199300130208333,
1412,1412,5659,2021-10-07 15:05:19.829,-0.1528453826904297,
1413,1413,5663,2021-10-07 15:05:19.833,-0.258029301961263,
1414,1414,5667,2021-10-07 15:05:19.837,-0.1872094472249349,
1415,1415,5671,2021-10-07 15:05:19.841,-0.2111148834228516,
1416,1416,5675,2021-10-07 15:05:19.845,-0.2460765838623047,
1417,1417,5679,2021-10-07 15:05:19.849,-0.1769002278645833,
1418,1418,5683,2021-10-07 15:05:19.853,-0.2544434865315755,
1419,1419,5687,2021-10-07 15:05:19.857,-0.1818307240804036,
1420,1420,5691,2021-10-07 15:05:19.861,-0.2677408854166667,
1421,1421,5695,2021-10-07 15:05:19.865,-0.3678448994954427,
1422,1422,5699,2021-10-07 15:05:19.869,-0.2680397033691407,
1423,1423,5703,2021-10-07 15:05:19.873,-0.2489153544108073,
1424,1424,5707,2021-10-07 15:05:19.877,-0.0821749369303385,
1425,1425,5711,2021-10-07 15:05:19.881,-0.0953229268391927,
1426,1426,5715,2021-10-07 15:05:19.885,-0.1700274149576823,
1427,1427,5719,2021-10-07 15:05:19.889,-0.1408926645914713,
1428,1428,5723,2021-10-07 15:05:19.893,-0.2695337931315104,
1429,1429,5727,2021-10-07 15:05:19.897,-0.2085749308268229,
1430,1430,5731,2021-10-07 15:05:19.901,-0.2311356862386068,
1431,1431,5735,2021-10-07 15:05:19.905,-0.2605692545572917,
1432,1432,5739,2021-10-07 15:05:19.909,-0.179440180460612,
1433,1433,5743,2021-10-07 15:05:19.913,-0.2649021148681641,
1434,1434,5747,2021-10-07 15:05:19.917,-0.1873588562011719,
1435,1435,5751,2021-10-07 15:05:19.921,-0.2170912424723307,
1436,1436,5755,2021-10-07 15:05:19.925,-0.2520529429117839,
1437,1437,5759,2021-10-07 15:05:19.929,-0.1751073201497396,
1438,1438,5763,2021-10-07 15:05:19.933,-0.272820790608724,
1439,1439,5767,2021-10-07 15:05:19.937,-0.2014032999674479,
1440,1440,5771,2021-10-07 15:05:19.941,-0.2275498708089193,
1441,1441,5775,2021-10-07 15:05:19.945,-0.265499750773112,
1442,1442,5779,2021-10-07 15:05:19.949,-0.1915423075358073,
1443,1443,5783,2021-10-07 15:05:19.953,-0.286566416422526,
1444,1444,5787,2021-10-07 15:05:19.957,-0.2033456166585286,
1445,1445,5791,2021-10-07 15:05:19.961,-0.2211252848307291,
1446,1446,5795,2021-10-07 15:05:19.965,-0.2562363942464193,
1447,1447,5799,2021-10-07 15:05:19.969,-0.1769002278645833,
1448,1448,5803,2021-10-07 15:05:19.973,-0.2758089701334635,
1449,1449,5807,2021-10-07 15:05:19.977,-0.2060349782307943,
1450,1450,5811,2021-10-07 15:05:19.981,-0.222469965616862,
1451,1451,5815,2021-10-07 15:05:19.985,-0.2517541249593099,
1452,1452,5819,2021-10-07 15:05:19.989,-0.1740614573160807,
1453,1453,5823,2021-10-07 15:05:19.993,-0.2662467956542969,
1454,1454,5827,2021-10-07 15:05:19.997,-0.1895999908447266,
1455,1455,5831,2021-10-07 15:05:20.001,-0.2124595642089844,
1456,1456,5835,2021-10-07 15:05:20.005,-0.2517541249593099,
1457,1457,5839,2021-10-07 15:05:20.009,-0.1771990458170573,
1458,1458,5843,2021-10-07 15:05:20.013,-0.2744642893473307,
1459,1459,5847,2021-10-07 15:05:20.017,-0.200656255086263,
1460,1460,5851,2021-10-07 15:05:20.021,-0.2169418334960937,
1461,1461,5855,2021-10-07 15:05:20.025,-0.2427895863850911,
1462,1462,5859,2021-10-07 15:05:20.029,-0.1618099212646484,
1463,1463,5863,2021-10-07 15:05:20.033,-0.2611668904622396,
1464,1464,5867,2021-10-07 15:05:20.037,-0.1958751678466797,
1465,1465,5871,2021-10-07 15:05:20.041,-0.2191829681396484,
1466,1466,5875,2021-10-07 15:05:20.045,-0.2544434865315755,
1467,1467,5879,2021-10-07 15:05:20.049,-0.1843706766764323,
1468,1468,5883,2021-10-07 15:05:20.053,-0.2671432495117188,
1469,1469,5887,2021-10-07 15:05:20.057,-0.1658439636230469,
1470,1470,5891,2021-10-07 15:05:20.061,-0.1755555470784505,
1471,1471,5895,2021-10-07 15:05:20.065,-0.2123101552327474,
1472,1472,5899,2021-10-07 15:05:20.069,-0.1459725697835286,
1473,1473,5903,2021-10-07 15:05:20.073,-0.2607186635335287,
1474,1474,5907,2021-10-07 15:05:20.077,-0.2048397064208984,
1475,1475,5911,2021-10-07 15:05:20.081,-0.2386061350504557,
1476,1476,5915,2021-10-07 15:05:20.085,-0.2738666534423828,
1477,1477,5919,2021-10-07 15:05:20.089,-0.2090231577555338,
1478,1478,5923,2021-10-07 15:05:20.093,-0.3074836730957032,
1479,1479,5927,2021-10-07 15:05:20.097,-0.2229181925455729,
1480,1480,5931,2021-10-07 15:05:20.101,-0.236514409383138,
1481,1481,5935,2021-10-07 15:05:20.105,-0.2557881673177083,
1482,1482,5939,2021-10-07 15:05:20.109,-0.1713720957438151,
1483,1483,5943,2021-10-07 15:05:20.113,-0.2659479777018229,
1484,1484,5947,2021-10-07 15:05:20.117,-0.1903470357259114,
1485,1485,5951,2021-10-07 15:05:20.121,-0.2027479807535807,
1486,1486,5955,2021-10-07 15:05:20.125,-0.2317333221435547,
1487,1487,5959,2021-10-07 15:05:20.129,-0.1616605122884114,
1488,1488,5963,2021-10-07 15:05:20.133,-0.2659479777018229,
1489,1489,5967,2021-10-07 15:05:20.137,-0.1930363972981771,
1490,1490,5971,2021-10-07 15:05:20.141,-0.207827885945638,
1491,1491,5975,2021-10-07 15:05:20.145,-0.2418931325276693,
1492,1492,5979,2021-10-07 15:05:20.149,-0.1661427815755208,
1493,1493,5983,2021-10-07 15:05:20.153,-0.2596728006998698,
1494,1494,5987,2021-10-07 15:05:20.157,-0.1843706766764323,
1495,1495,5991,2021-10-07 15:05:20.161,-0.1606146494547526,
1496,1496,5995,2021-10-07 15:05:20.165,-0.1183319091796875,
1497,1497,5999,2021-10-07 15:05:20.169,-0.0808302561442057,
1498,1498,6003,2021-10-07 15:05:20.173,-0.2695337931315104,
1499,1499,6007,2021-10-07 15:05:20.177,-0.2738666534423828,
1500,1500,6011,2021-10-07 15:05:20.181,-0.280141830444336,
1501,1501,6015,2021-10-07 15:05:20.185,-0.1990127563476562,
1502,1502,6019,2021-10-07 15:05:20.189,0.0237560272216796,
1503,1503,6023,2021-10-07 15:05:20.193,0.0452709197998046,
1504,1504,6027,2021-10-07 15:05:20.197,0.179141362508138,
1505,1505,6031,2021-10-07 15:05:20.201,0.1879564921061198,
1506,1506,6035,2021-10-07 15:05:20.205,0.0687281290690104,
1507,1507,6039,2021-10-07 15:05:20.209,-0.2324803670247396,
1508,1508,6043,2021-10-07 15:05:20.213,-0.9239451090494792,
1509,1509,6047,2021-10-07 15:05:20.217,-1.4307403564453127,
1510,1510,6051,2021-10-07 15:05:20.221,-1.6633701324462893,
1511,1511,6055,2021-10-07 15:05:20.225,-1.4036973317464194,
1512,1512,6059,2021-10-07 15:05:20.229,-0.7259782155354818,
1513,1513,6063,2021-10-07 15:05:20.233,-0.201104482014974,
1514,1514,6067,2021-10-07 15:05:20.237,0.294335683186849,
1515,1515,6071,2021-10-07 15:05:20.241,0.4912567138671875,
1516,1516,6075,2021-10-07 15:05:20.245,0.5115763346354167,
1517,1517,6079,2021-10-07 15:05:20.249,0.5230808258056642,
1518,1518,6083,2021-10-07 15:05:20.253,0.3242174784342448,
1519,1519,6087,2021-10-07 15:05:20.257,0.2719243367513021,
1520,1520,6091,2021-10-07 15:05:20.261,0.1192283630371093,
1521,1521,6095,2021-10-07 15:05:20.265,-0.0380992889404296,
1522,1522,6099,2021-10-07 15:05:20.269,-0.0797843933105468,
1523,1523,6103,2021-10-07 15:05:20.273,-0.2556387583414714,
1524,1524,6107,2021-10-07 15:05:20.277,-0.2399508158365885,
1525,1525,6111,2021-10-07 15:05:20.281,-0.2986685434977214,
1526,1526,6115,2021-10-07 15:05:20.285,-0.3503640492757162,
1527,1527,6119,2021-10-07 15:05:20.289,-0.286715825398763,
1528,1528,6123,2021-10-07 15:05:20.293,-0.3817399342854818,
1529,1529,6127,2021-10-07 15:05:20.297,-0.308230717976888,
1530,1530,6131,2021-10-07 15:05:20.301,-0.3237692515055339,
1531,1531,6135,2021-10-07 15:05:20.305,-0.3449853261311849,
1532,1532,6139,2021-10-07 15:05:20.309,-0.2616151173909505,
1533,1533,6143,2021-10-07 15:05:20.313,-0.3502146402994792,
1534,1534,6147,2021-10-07 15:05:20.317,-0.2623621622721354,
1535,1535,6151,2021-10-07 15:05:20.321,-0.2638562520345052,
1536,1536,6155,2021-10-07 15:05:20.325,-0.2774524688720703,
1537,1537,6159,2021-10-07 15:05:20.329,-0.201104482014974,
1538,1538,6163,2021-10-07 15:05:20.333,-0.2964274088541667,
1539,1539,6167,2021-10-07 15:05:20.337,-0.2191829681396484,
1540,1540,6171,2021-10-07 15:05:20.341,-0.2312850952148437,
1541,1541,6175,2021-10-07 15:05:20.345,-0.2469730377197266,
1542,1542,6179,2021-10-07 15:05:20.349,-0.171969731648763,
1543,1543,6183,2021-10-07 15:05:20.353,-0.2559375762939453,
1544,1544,6187,2021-10-07 15:05:20.357,-0.1698780059814453,
1545,1545,6191,2021-10-07 15:05:20.361,-0.200955073038737,
1546,1546,6195,2021-10-07 15:05:20.365,-0.2384567260742187,
1547,1547,6199,2021-10-07 15:05:20.369,-0.1695791880289713,
1548,1548,6203,2021-10-07 15:05:20.373,-0.2610174814860026,
1549,1549,6207,2021-10-07 15:05:20.377,-0.1964728037516276,
1550,1550,6211,2021-10-07 15:05:20.381,-0.2372614542643229,
1551,1551,6215,2021-10-07 15:05:20.385,-0.2686373392740885,
1552,1552,6219,2021-10-07 15:05:20.389,-0.1837730407714844,
1553,1553,6223,2021-10-07 15:05:20.393,-0.2713267008463542,
1554,1554,6227,2021-10-07 15:05:20.397,-0.1957257588704427,
1555,1555,6231,2021-10-07 15:05:20.401,-0.2236652374267578,
1556,1556,6235,2021-10-07 15:05:20.405,-0.2533976236979167,
1557,1557,6239,2021-10-07 15:05:20.409,-0.1833248138427734,
1558,1558,6243,2021-10-07 15:05:20.413,-0.2807394663492839,
1559,1559,6247,2021-10-07 15:05:20.417,-0.2166430155436198,
1560,1560,6251,2021-10-07 15:05:20.421,-0.2484671274820963,
1561,1561,6255,2021-10-07 15:05:20.425,-0.2707290649414063,
1562,1562,6259,2021-10-07 15:05:20.429,-0.1731650034586588,
1563,1563,6263,2021-10-07 15:05:20.433,-0.2362155914306641,
1564,1564,6267,2021-10-07 15:05:20.437,-0.1549371083577474,
1565,1565,6271,2021-10-07 15:05:20.441,-0.1909446716308594,
1566,1566,6275,2021-10-07 15:05:20.445,-0.2308368682861328,
1567,1567,6279,2021-10-07 15:05:20.449,-0.1680850982666016,
1568,1568,6283,2021-10-07 15:05:20.453,-0.2613162994384766,
1569,1569,6287,2021-10-07 15:05:20.457,-0.1878070831298828,
1570,1570,6291,2021-10-07 15:05:20.461,-0.207827885945638,
1571,1571,6295,2021-10-07 15:05:20.465,-0.2427895863850911,
1572,1572,6299,2021-10-07 15:05:20.469,-0.1766014099121094,
1573,1573,6303,2021-10-07 15:05:20.473,-0.2663962046305339,
1574,1574,6307,2021-10-07 15:05:20.477,-0.1885541280110677,
1575,1575,6311,2021-10-07 15:05:20.481,-0.2199300130208333,
1576,1576,6315,2021-10-07 15:05:20.485,-0.2527999877929688,
1577,1577,6319,2021-10-07 15:05:20.489,-0.1858647664388021,
1578,1578,6323,2021-10-07 15:05:20.493,-0.2835782368977865,
1579,1579,6327,2021-10-07 15:05:20.497,-0.2066326141357422,
1580,1580,6331,2021-10-07 15:05:20.501,-0.2236652374267578,
1581,1581,6335,2021-10-07 15:05:20.505,-0.2474212646484375,
1582,1582,6339,2021-10-07 15:05:20.509,-0.1739120483398437,
1583,1583,6343,2021-10-07 15:05:20.513,-0.2616151173909505,
1584,1584,6347,2021-10-07 15:05:20.517,-0.1779460906982422,
1585,1585,6351,2021-10-07 15:05:20.521,-0.1997598012288411,
1586,1586,6355,2021-10-07 15:05:20.525,-0.2335262298583984,
1587,1587,6359,2021-10-07 15:05:20.529,-0.1667404174804687,
1588,1588,6363,2021-10-07 15:05:20.533,-0.2520529429117839,
1589,1589,6367,2021-10-07 15:05:20.537,-0.1734638214111328,
1590,1590,6371,2021-10-07 15:05:20.541,-0.200506846110026,
1591,1591,6375,2021-10-07 15:05:20.545,-0.2403990427652995,
1592,1592,6379,2021-10-07 15:05:20.549,-0.1730155944824219,
1593,1593,6383,2021-10-07 15:05:20.553,-0.2701314290364583,
1594,1594,6387,2021-10-07 15:05:20.557,-0.200955073038737,
1595,1595,6391,2021-10-07 15:05:20.561,-0.2247111002604166,
1596,1596,6395,2021-10-07 15:05:20.565,-0.2595233917236328,
1597,1597,6399,2021-10-07 15:05:20.569,-0.1954269409179687,
1598,1598,6403,2021-10-07 15:05:20.573,-0.2840264638264974,
1599,1599,6407,2021-10-07 15:05:20.577,-0.2025985717773437,
1600,1600,6411,2021-10-07 15:05:20.581,-0.2260557810465495,
1601,1601,6415,2021-10-07 15:05:20.585,-0.2917957305908203,
1602,1602,6419,2021-10-07 15:05:20.589,-0.1713720957438151,
1603,1603,6423,2021-10-07 15:05:20.593,-0.2336756388346354,
1604,1604,6427,2021-10-07 15:05:20.597,-0.2099196116129557,
1605,1605,6431,2021-10-07 15:05:20.601,-0.1904964447021484,
1606,1606,6435,2021-10-07 15:05:20.605,-0.265051523844401,
1607,1607,6439,2021-10-07 15:05:20.609,-0.1727167765299479,
1608,1608,6443,2021-10-07 15:05:20.613,-0.2466742197672526,
1609,1609,6447,2021-10-07 15:05:20.617,-0.2342732747395833,
1610,1610,6451,2021-10-07 15:05:20.621,-0.2049891153971354,
1611,1611,6455,2021-10-07 15:05:20.625,-0.2805900573730469,
1612,1612,6459,2021-10-07 15:05:20.629,-0.1940822601318359,
1613,1613,6463,2021-10-07 15:05:20.633,-0.2577304840087891,
1614,1614,6467,2021-10-07 15:05:20.637,-0.2170912424723307,
1615,1615,6471,2021-10-07 15:05:20.641,-0.18646240234375,
1616,1616,6475,2021-10-07 15:05:20.645,-0.2629597981770833,
1617,1617,6479,2021-10-07 15:05:20.649,-0.1713720957438151,
1618,1618,6483,2021-10-07 15:05:20.653,-0.2423413594563802,
1619,1619,6487,2021-10-07 15:05:20.657,-0.2139536539713541,
1620,1620,6491,2021-10-07 15:05:20.661,-0.1810836791992187,
1621,1621,6495,2021-10-07 15:05:20.665,-0.2505588531494141,
1622,1622,6499,2021-10-07 15:05:20.669,-0.1631546020507812,
1623,1623,6503,2021-10-07 15:05:20.673,-0.2285957336425781,
1624,1624,6507,2021-10-07 15:05:20.677,-0.1997598012288411,
1625,1625,6511,2021-10-07 15:05:20.681,-0.171820322672526,
1626,1626,6515,2021-10-07 15:05:20.685,-0.2529493967692057,
1627,1627,6519,2021-10-07 15:05:20.689,-0.1740614573160807,
1628,1628,6523,2021-10-07 15:05:20.693,-0.2468236287434896,
1629,1629,6527,2021-10-07 15:05:20.697,-0.2209758758544922,
1630,1630,6531,2021-10-07 15:05:20.701,-0.2046902974446615,
1631,1631,6535,2021-10-07 15:05:20.705,-0.293887456258138,
1632,1632,6539,2021-10-07 15:05:20.709,-0.2175394694010416,
1633,1633,6543,2021-10-07 15:05:20.713,-0.2882099151611328,
1634,1634,6547,2021-10-07 15:05:20.717,-0.257879892985026,
1635,1635,6551,2021-10-07 15:05:20.721,-0.2145512898763021,
1636,1636,6555,2021-10-07 15:05:20.725,-0.2738666534423828,
1637,1637,6559,2021-10-07 15:05:20.729,-0.1769002278645833,
1638,1638,6563,2021-10-07 15:05:20.733,-0.2405484517415365,
1639,1639,6567,2021-10-07 15:05:20.737,-0.2014032999674479,
1640,1640,6571,2021-10-07 15:05:20.741,-0.1821295420328776,
1641,1641,6575,2021-10-07 15:05:20.745,-0.2617645263671875,
1642,1642,6579,2021-10-07 15:05:20.749,-0.172268549601237,
1643,1643,6583,2021-10-07 15:05:20.753,-0.2389049530029297,
1644,1644,6587,2021-10-07 15:05:20.757,-0.2049891153971354,
1645,1645,6591,2021-10-07 15:05:20.761,-0.1773484547932942,
1646,1646,6595,2021-10-07 15:05:20.765,-0.2548917134602865,
1647,1647,6599,2021-10-07 15:05:20.769,-0.1764520009358724,
1648,1648,6603,2021-10-07 15:05:20.773,-0.2432378133138021,
1649,1649,6607,2021-10-07 15:05:20.777,-0.2055867513020833,
1650,1650,6611,2021-10-07 15:05:20.781,-0.1804860432942708,
1651,1651,6615,2021-10-07 15:05:20.785,-0.2632586161295573,
1652,1652,6619,2021-10-07 15:05:20.789,-0.186163584391276,
1653,1653,6623,2021-10-07 15:05:20.793,-0.2623621622721354,
1654,1654,6627,2021-10-07 15:05:20.797,-0.236514409383138,
1655,1655,6631,2021-10-07 15:05:20.801,-0.2112642923990885,
1656,1656,6635,2021-10-07 15:05:20.805,-0.2344226837158203,
1657,1657,6639,2021-10-07 15:05:20.809,-0.0334676106770833,
1658,1658,6643,2021-10-07 15:05:20.813,0.0156879425048828,
1659,1659,6647,2021-10-07 15:05:20.817,0.1198259989420573,
1660,1660,6651,2021-10-07 15:05:20.821,0.1881059010823567,
1661,1661,6655,2021-10-07 15:05:20.825,0.1341692606608073,
1662,1662,6659,2021-10-07 15:05:20.829,0.1471678415934245,
1663,1663,6663,2021-10-07 15:05:20.833,-0.2502600351969401,
1664,1664,6667,2021-10-07 15:05:20.837,-0.8114401499430339,
1665,1665,6671,2021-10-07 15:05:20.841,-1.3375091552734375,
1666,1666,6675,2021-10-07 15:05:20.845,-1.6429011027018232,
1667,1667,6679,2021-10-07 15:05:20.849,-1.3266023000081382,
1668,1668,6683,2021-10-07 15:05:20.853,-0.83982785542806,
1669,1669,6687,2021-10-07 15:05:20.857,-0.2447319030761719,
1670,1670,6691,2021-10-07 15:05:20.861,0.1990127563476562,
1671,1671,6695,2021-10-07 15:05:20.865,0.3428936004638672,
1672,1672,6699,2021-10-07 15:05:20.869,0.5042552947998048,
1673,1673,6703,2021-10-07 15:05:20.873,0.4195404052734375,
1674,1674,6707,2021-10-07 15:05:20.877,0.3606732686360677,
1675,1675,6711,2021-10-07 15:05:20.881,0.2781995137532552,
1676,1676,6715,2021-10-07 15:05:20.885,0.0779914855957031,
1677,1677,6719,2021-10-07 15:05:20.889,0.0345134735107421,
1678,1678,6723,2021-10-07 15:05:20.893,-0.1399962107340495,
1679,1679,6727,2021-10-07 15:05:20.897,-0.1969210306803385,
1680,1680,6731,2021-10-07 15:05:20.901,-0.2314345041910807,
1681,1681,6735,2021-10-07 15:05:20.905,-0.3399054209391276,
1682,1682,6739,2021-10-07 15:05:20.909,-0.2704302469889323,
1683,1683,6743,2021-10-07 15:05:20.913,-0.3473758697509766,
1684,1684,6747,2021-10-07 15:05:20.917,-0.3255621592203776,
1685,1685,6751,2021-10-07 15:05:20.921,-0.300909678141276,
1686,1686,6755,2021-10-07 15:05:20.925,-0.3691895802815755,
1687,1687,6759,2021-10-07 15:05:20.929,-0.2756595611572266,
1688,1688,6763,2021-10-07 15:05:20.933,-0.3266080220540365,
1689,1689,6767,2021-10-07 15:05:20.937,-0.2850723266601563,
1690,1690,6771,2021-10-07 15:05:20.941,-0.2450307210286458,
1691,1691,6775,2021-10-07 15:05:20.945,-0.3027025858561198,
1692,1692,6779,2021-10-07 15:05:20.949,-0.2114137013753255,
1693,1693,6783,2021-10-07 15:05:20.953,-0.2877616882324219,
1694,1694,6787,2021-10-07 15:05:20.957,-0.2581787109375,
1695,1695,6791,2021-10-07 15:05:20.961,-0.2191829681396484,
1696,1696,6795,2021-10-07 15:05:20.965,-0.2735678354899089,
1697,1697,6799,2021-10-07 15:05:20.969,-0.1782449086507161,
1698,1698,6803,2021-10-07 15:05:20.973,-0.2489153544108073,
1699,1699,6807,2021-10-07 15:05:20.977,-0.2142524719238281,
1700,1700,6811,2021-10-07 15:05:20.981,-0.1766014099121094,
1701,1701,6815,2021-10-07 15:05:20.985,-0.2489153544108073,
1702,1702,6819,2021-10-07 15:05:20.989,-0.1664415995279948,
1703,1703,6823,2021-10-07 15:05:20.993,-0.2381579081217448,
1704,1704,6827,2021-10-07 15:05:20.997,-0.2136548360188802,
1705,1705,6831,2021-10-07 15:05:21.001,-0.1884047190348307,
1706,1706,6835,2021-10-07 15:05:21.005,-0.2663962046305339,
1707,1707,6839,2021-10-07 15:05:21.009,-0.1852671305338541,
1708,1708,6843,2021-10-07 15:05:21.013,-0.2548917134602865,
1709,1709,6847,2021-10-07 15:05:21.017,-0.2211252848307291,
1710,1710,6851,2021-10-07 15:05:21.021,-0.1970704396565755,
1711,1711,6855,2021-10-07 15:05:21.025,-0.272820790608724,
1712,1712,6859,2021-10-07 15:05:21.029,-0.1858647664388021,
1713,1713,6863,2021-10-07 15:05:21.033,-0.2538458506266276,
1714,1714,6867,2021-10-07 15:05:21.037,-0.2161947886149088,
1715,1715,6871,2021-10-07 15:05:21.041,-0.1884047190348307,
1716,1716,6875,2021-10-07 15:05:21.045,-0.2643044789632162,
1717,1717,6879,2021-10-07 15:05:21.049,-0.1803366343180338,
1718,1718,6883,2021-10-07 15:05:21.053,-0.2533976236979167,
1719,1719,6887,2021-10-07 15:05:21.057,-0.2247111002604166,
1720,1720,6891,2021-10-07 15:05:21.061,-0.1895999908447266,
1721,1721,6895,2021-10-07 15:05:21.065,-0.258477528889974,
1722,1722,6899,2021-10-07 15:05:21.069,-0.1728661855061849,
1723,1723,6903,2021-10-07 15:05:21.073,-0.2405484517415365,
1724,1724,6907,2021-10-07 15:05:21.077,-0.2127583821614583,
1725,1725,6911,2021-10-07 15:05:21.081,-0.1903470357259114,
1726,1726,6915,2021-10-07 15:05:21.085,-0.2623621622721354,
1727,1727,6919,2021-10-07 15:05:21.089,-0.1860141754150391,
1728,1728,6923,2021-10-07 15:05:21.093,-0.2604198455810547,
1729,1729,6927,2021-10-07 15:05:21.097,-0.2253087361653646,
1730,1730,6931,2021-10-07 15:05:21.101,-0.1951281229654948,
1731,1731,6935,2021-10-07 15:05:21.105,-0.2683385213216146,
1732,1732,6939,2021-10-07 15:05:21.109,-0.1813824971516927,
1733,1733,6943,2021-10-07 15:05:21.113,-0.2477200826009115,
1734,1734,6947,2021-10-07 15:05:21.117,-0.2605692545572917,
1735,1735,6951,2021-10-07 15:05:21.121,-0.1739120483398437,
1736,1736,6955,2021-10-07 15:05:21.125,-0.258626937866211,
1737,1737,6959,2021-10-07 15:05:21.129,-0.1872094472249349,
1738,1738,6963,2021-10-07 15:05:21.133,-0.2112642923990885,
1739,1739,6967,2021-10-07 15:05:21.137,-0.236813227335612,
1740,1740,6971,2021-10-07 15:05:21.141,-0.1568794250488281,
1741,1741,6975,2021-10-07 15:05:21.145,-0.2401002248128255,
1742,1742,6979,2021-10-07 15:05:21.149,-0.1686827341715495,
1743,1743,6983,2021-10-07 15:05:21.153,-0.1978174845377604,
1744,1744,6987,2021-10-07 15:05:21.157,-0.2288945515950521,
1745,1745,6991,2021-10-07 15:05:21.161,-0.1634534200032552,
1746,1746,6995,2021-10-07 15:05:21.165,-0.258477528889974,
1747,1747,6999,2021-10-07 15:05:21.169,-0.1931858062744141,
1748,1748,7003,2021-10-07 15:05:21.173,-0.2202288309733073,
1749,1749,7007,2021-10-07 15:05:21.177,-0.250857671101888,
1750,1750,7011,2021-10-07 15:05:21.181,-0.1788425445556641,
1751,1751,7015,2021-10-07 15:05:21.185,-0.265200932820638,
1752,1752,7019,2021-10-07 15:05:21.189,-0.1972198486328125,
1753,1753,7023,2021-10-07 15:05:21.193,-0.2302392323811849,
1754,1754,7027,2021-10-07 15:05:21.197,-0.2608680725097657,
1755,1755,7031,2021-10-07 15:05:21.201,-0.1873588562011719,
1756,1756,7035,2021-10-07 15:05:21.205,-0.2696832021077474,
1757,1757,7039,2021-10-07 15:05:21.209,-0.1999092102050781,
1758,1758,7043,2021-10-07 15:05:21.213,-0.229342778523763,
1759,1759,7047,2021-10-07 15:05:21.217,-0.2672926584879557,
1760,1760,7051,2021-10-07 15:05:21.221,-0.1912434895833333,
1761,1761,7055,2021-10-07 15:05:21.225,-0.2886581420898438,
1762,1762,7059,2021-10-07 15:05:21.229,-0.2266534169514974,
1763,1763,7063,2021-10-07 15:05:21.233,-0.1757049560546875,
1764,1764,7067,2021-10-07 15:05:21.237,-0.2493635813395182,
1765,1765,7071,2021-10-07 15:05:21.241,-0.1739120483398437,
1766,1766,7075,2021-10-07 15:05:21.245,-0.2516047159830729,
1767,1767,7079,2021-10-07 15:05:21.249,-0.2214241027832031,
1768,1768,7083,2021-10-07 15:05:21.253,-0.1903470357259114,
1769,1769,7087,2021-10-07 15:05:21.257,-0.2601210276285807,
1770,1770,7091,2021-10-07 15:05:21.261,-0.1754061381022135,
1771,1771,7095,2021-10-07 15:05:21.265,-0.251455307006836,
1772,1772,7099,2021-10-07 15:05:21.269,-0.2230676015218099,
1773,1773,7103,2021-10-07 15:05:21.273,-0.1957257588704427,
1774,1774,7107,2021-10-07 15:05:21.277,-0.2604198455810547,
1775,1775,7111,2021-10-07 15:05:21.281,-0.1682345072428385,
1776,1776,7115,2021-10-07 15:05:21.285,-0.2377096811930338,
1777,1777,7119,2021-10-07 15:05:21.289,-0.2193323771158854,
1778,1778,7123,2021-10-07 15:05:21.293,-0.193484624226888,
1779,1779,7127,2021-10-07 15:05:21.297,-0.2638562520345052,
1780,1780,7131,2021-10-07 15:05:21.301,-0.1749579111735026,
1781,1781,7135,2021-10-07 15:05:21.305,-0.2372614542643229,
1782,1782,7139,2021-10-07 15:05:21.309,-0.2003574371337891,
1783,1783,7143,2021-10-07 15:05:21.313,-0.1745096842447916,
1784,1784,7147,2021-10-07 15:05:21.317,-0.2468236287434896,
1785,1785,7151,2021-10-07 15:05:21.321,-0.1588217417399088,
1786,1786,7155,2021-10-07 15:05:21.325,-0.2324803670247396,
1787,1787,7159,2021-10-07 15:05:21.329,-0.2087243398030599,
1788,1788,7163,2021-10-07 15:05:21.333,-0.193932851155599,
1789,1789,7167,2021-10-07 15:05:21.337,-0.2894051869710287,
1790,1790,7171,2021-10-07 15:05:21.341,-0.2141030629475911,
1791,1791,7175,2021-10-07 15:05:21.345,-0.2879110972086589,
1792,1792,7179,2021-10-07 15:05:21.349,-0.2553399403889974,
1793,1793,7183,2021-10-07 15:05:21.353,-0.2212746938069661,
1794,1794,7187,2021-10-07 15:05:21.357,-0.2883593241373698,
1795,1795,7191,2021-10-07 15:05:21.361,-0.1906458536783854,
1796,1796,7195,2021-10-07 15:05:21.365,-0.2487659454345703,
1797,1797,7199,2021-10-07 15:05:21.369,-0.2126089731852213,
1798,1798,7203,2021-10-07 15:05:21.373,-0.1800378163655599,
1799,1799,7207,2021-10-07 15:05:21.377,-0.2572822570800782,
1800,1800,7211,2021-10-07 15:05:21.381,-0.1695791880289713,
1801,1801,7215,2021-10-07 15:05:21.385,-0.2427895863850911,
1802,1802,7219,2021-10-07 15:05:21.389,-0.2163441975911458,
1803,1803,7223,2021-10-07 15:05:21.393,-0.186312993367513,
1804,1804,7227,2021-10-07 15:05:21.397,-0.2538458506266276,
1805,1805,7231,2021-10-07 15:05:21.401,-0.1659933725992838,
1806,1806,7235,2021-10-07 15:05:21.405,-0.2333768208821615,
1807,1807,7239,2021-10-07 15:05:21.409,-0.2072302500406901,
1808,1808,7243,2021-10-07 15:05:21.413,-0.1867612202962239,
1809,1809,7247,2021-10-07 15:05:21.417,-0.2671432495117188,
1810,1810,7251,2021-10-07 15:05:21.421,-0.1797389984130859,
1811,1811,7255,2021-10-07 15:05:21.425,-0.24383544921875,
1812,1812,7259,2021-10-07 15:05:21.429,-0.2176888783772786,
1813,1813,7263,2021-10-07 15:05:21.433,-0.1951281229654948,
1814,1814,7267,2021-10-07 15:05:21.437,-0.2707290649414063,
1815,1815,7271,2021-10-07 15:05:21.441,-0.143582026163737,
1816,1816,7275,2021-10-07 15:05:21.445,-0.1033910115559895,
1817,1817,7279,2021-10-07 15:05:21.449,0.042880376180013,
1818,1818,7283,2021-10-07 15:05:21.453,0.1319281260172526,
1819,1819,7287,2021-10-07 15:05:21.457,0.0883007049560547,
1820,1820,7291,2021-10-07 15:05:21.461,0.1806354522705078,
1821,1821,7295,2021-10-07 15:05:21.465,0.0433286031087239,
1822,1822,7299,2021-10-07 15:05:21.469,-0.258477528889974,
1823,1823,7303,2021-10-07 15:05:21.473,-0.7909711201985679,
1824,1824,7307,2021-10-07 15:05:21.477,-1.3794930775960288,
1825,1825,7311,2021-10-07 15:05:21.481,-1.507685979207357,
1826,1826,7315,2021-10-07 15:05:21.485,-1.3170401255289714,
1827,1827,7319,2021-10-07 15:05:21.489,-0.7598940531412761,
1828,1828,7323,2021-10-07 15:05:21.493,-0.1882553100585937,
1829,1829,7327,2021-10-07 15:05:21.497,0.1190789540608724,
1830,1830,7331,2021-10-07 15:05:21.501,0.4054959615071615,
1831,1831,7335,2021-10-07 15:05:21.505,0.4144605000813802,
1832,1832,7339,2021-10-07 15:05:21.509,0.4219309488932292,
1833,1833,7343,2021-10-07 15:05:21.513,0.3771082560221354,
1834,1834,7347,2021-10-07 15:05:21.517,0.2045408884684245,
1835,1835,7351,2021-10-07 15:05:21.521,0.1668898264567057,
1836,1836,7355,2021-10-07 15:05:21.525,-0.0264453887939453,
1837,1837,7359,2021-10-07 15:05:21.529,-0.1110108693440755,
1838,1838,7363,2021-10-07 15:05:21.533,-0.1751073201497396,
1839,1839,7367,2021-10-07 15:05:21.537,-0.3115177154541016,
1840,1840,7371,2021-10-07 15:05:21.541,-0.2575810750325521,
1841,1841,7375,2021-10-07 15:05:21.545,-0.3391583760579427,
1842,1842,7379,2021-10-07 15:05:21.549,-0.3185399373372396,
1843,1843,7383,2021-10-07 15:05:21.553,-0.2980709075927735,
1844,1844,7387,2021-10-07 15:05:21.557,-0.373373031616211,
1845,1845,7391,2021-10-07 15:05:21.561,-0.2811876932779948,
1846,1846,7395,2021-10-07 15:05:21.565,-0.3406524658203125,
1847,1847,7399,2021-10-07 15:05:21.569,-0.3068860371907552,
1848,1848,7403,2021-10-07 15:05:21.573,-0.2614657084147135,
1849,1849,7407,2021-10-07 15:05:21.577,-0.3198846181233724,
1850,1850,7411,2021-10-07 15:05:21.581,-0.2266534169514974,
1851,1851,7415,2021-10-07 15:05:21.585,-0.2904510498046875,
1852,1852,7419,2021-10-07 15:05:21.589,-0.2928415934244792,
1853,1853,7423,2021-10-07 15:05:21.593,-0.1960245768229166,
1854,1854,7427,2021-10-07 15:05:21.597,-0.272970199584961,
1855,1855,7431,2021-10-07 15:05:21.601,-0.1991621653238932,
1856,1856,7435,2021-10-07 15:05:21.605,-0.2163441975911458,
1857,1857,7439,2021-10-07 15:05:21.609,-0.2430884043375651,
1858,1858,7443,2021-10-07 15:05:21.613,-0.1734638214111328,
1859,1859,7447,2021-10-07 15:05:21.617,-0.2608680725097657,
1860,1860,7451,2021-10-07 15:05:21.621,-0.193932851155599,
1861,1861,7455,2021-10-07 15:05:21.625,-0.2132066090901693,
1862,1862,7459,2021-10-07 15:05:21.629,-0.2417437235514323,
1863,1863,7463,2021-10-07 15:05:21.633,-0.1682345072428385,
1864,1864,7467,2021-10-07 15:05:21.637,-0.2593739827473958,
1865,1865,7471,2021-10-07 15:05:21.641,-0.1858647664388021,
1866,1866,7475,2021-10-07 15:05:21.645,-0.2093219757080078,
1867,1867,7479,2021-10-07 15:05:21.649,-0.243984858194987,
1868,1868,7483,2021-10-07 15:05:21.653,-0.1785437266031901,
1869,1869,7487,2021-10-07 15:05:21.657,-0.272223154703776,
1870,1870,7491,2021-10-07 15:05:21.661,-0.1996103922526041,
1871,1871,7495,2021-10-07 15:05:21.665,-0.2212746938069661,
1872,1872,7499,2021-10-07 15:05:21.669,-0.2554893493652344,
1873,1873,7503,2021-10-07 15:05:21.673,-0.1942316691080729,
1874,1874,7507,2021-10-07 15:05:21.677,-0.2843252817789714,
1875,1875,7511,2021-10-07 15:05:21.681,-0.2097702026367187,
1876,1876,7515,2021-10-07 15:05:21.685,-0.2235158284505208,
1877,1877,7519,2021-10-07 15:05:21.689,-0.2474212646484375,
1878,1878,7523,2021-10-07 15:05:21.693,-0.1716709136962891,
1879,1879,7527,2021-10-07 15:05:21.697,-0.258029301961263,
1880,1880,7531,2021-10-07 15:05:21.701,-0.1854165395100911,
1881,1881,7535,2021-10-07 15:05:21.705,-0.2024491628011068,
1882,1882,7539,2021-10-07 15:05:21.709,-0.2311356862386068,
1883,1883,7543,2021-10-07 15:05:21.713,-0.1642004648844401,
1884,1884,7547,2021-10-07 15:05:21.717,-0.2589257558186849,
1885,1885,7551,2021-10-07 15:05:21.721,-0.1898988087972005,
1886,1886,7555,2021-10-07 15:05:21.725,-0.2182865142822266,
1887,1887,7559,2021-10-07 15:05:21.729,-0.2554893493652344,
1888,1888,7563,2021-10-07 15:05:21.733,-0.1987139383951823,
1889,1889,7567,2021-10-07 15:05:21.737,-0.3006108601888021,
1890,1890,7571,2021-10-07 15:05:21.741,-0.2185853322347005,
1891,1891,7575,2021-10-07 15:05:21.745,-0.2239640553792318,
1892,1892,7579,2021-10-07 15:05:21.749,-0.2380084991455078,
1893,1893,7583,2021-10-07 15:05:21.753,-0.1612122853597005,
1894,1894,7587,2021-10-07 15:05:21.757,-0.2575810750325521,
1895,1895,7591,2021-10-07 15:05:21.761,-0.1922893524169922,
1896,1896,7595,2021-10-07 15:05:21.765,-0.2117125193277995,
1897,1897,7599,2021-10-07 15:05:21.769,-0.236365000406901,
1898,1898,7603,2021-10-07 15:05:21.773,-0.164648691813151,
1899,1899,7607,2021-10-07 15:05:21.777,-0.258477528889974,
1900,1900,7611,2021-10-07 15:05:21.781,-0.1909446716308594,
1901,1901,7615,2021-10-07 15:05:21.785,-0.2290439605712891,
1902,1902,7619,2021-10-07 15:05:21.789,-0.2889569600423177,
1903,1903,7623,2021-10-07 15:05:21.793,-0.1940822601318359,
1904,1904,7627,2021-10-07 15:05:21.797,-0.2381579081217448,
1905,1905,7631,2021-10-07 15:05:21.801,-0.1368586222330729,
1906,1906,7635,2021-10-07 15:05:21.805,-0.1543394724527995,
1907,1907,7639,2021-10-07 15:05:21.809,-0.1940822601318359,
1908,1908,7643,2021-10-07 15:05:21.813,-0.1473172505696614,
1909,1909,7647,2021-10-07 15:05:21.817,-0.2587763468424479,
1910,1910,7651,2021-10-07 15:05:21.821,-0.1921399434407552,
1911,1911,7655,2021-10-07 15:05:21.825,-0.2166430155436198,
1912,1912,7659,2021-10-07 15:05:21.829,-0.2550411224365235,
1913,1913,7663,2021-10-07 15:05:21.833,-0.1849683125813802,
1914,1914,7667,2021-10-07 15:05:21.837,-0.2771536509195964,
1915,1915,7671,2021-10-07 15:05:21.841,-0.2139536539713541,
1916,1916,7675,2021-10-07 15:05:21.845,-0.2395025889078776,
1917,1917,7679,2021-10-07 15:05:21.849,-0.2717749277750651,
1918,1918,7683,2021-10-07 15:05:21.853,-0.2043914794921875,
1919,1919,7687,2021-10-07 15:05:21.857,-0.2959791819254557,
1920,1920,7691,2021-10-07 15:05:21.861,-0.2244122823079427,
1921,1921,7695,2021-10-07 15:05:21.865,-0.2412954966227213,
1922,1922,7699,2021-10-07 15:05:21.869,-0.2604198455810547,
1923,1923,7703,2021-10-07 15:05:21.873,-0.1824283599853516,
1924,1924,7707,2021-10-07 15:05:21.877,-0.2678902943929037,
1925,1925,7711,2021-10-07 15:05:21.881,-0.1928869883219401,
1926,1926,7715,2021-10-07 15:05:21.885,-0.2105172475179036,
1927,1927,7719,2021-10-07 15:05:21.889,-0.2402496337890625,
1928,1928,7723,2021-10-07 15:05:21.893,-0.1743602752685547,
1929,1929,7727,2021-10-07 15:05:21.897,-0.2662467956542969,
1930,1930,7731,2021-10-07 15:05:21.901,-0.1954269409179687,
1931,1931,7735,2021-10-07 15:05:21.905,-0.2135054270426432,
1932,1932,7739,2021-10-07 15:05:21.909,-0.2417437235514323,
1933,1933,7743,2021-10-07 15:05:21.913,-0.1746590932210286,
1934,1934,7747,2021-10-07 15:05:21.917,-0.2696832021077474,
1935,1935,7751,2021-10-07 15:05:21.921,-0.2012538909912109,
1936,1936,7755,2021-10-07 15:05:21.925,-0.2211252848307291,
1937,1937,7759,2021-10-07 15:05:21.929,-0.2502600351969401,
1938,1938,7763,2021-10-07 15:05:21.933,-0.1691309611002604,
1939,1939,7767,2021-10-07 15:05:21.937,-0.2341238657633463,
1940,1940,7771,2021-10-07 15:05:21.941,-0.1396973927815755,
1941,1941,7775,2021-10-07 15:05:21.945,-0.1661427815755208,
1942,1942,7779,2021-10-07 15:05:21.949,-0.2272510528564453,
1943,1943,7783,2021-10-07 15:05:21.953,-0.1810836791992187,
1944,1944,7787,2021-10-07 15:05:21.957,-0.2847735087076823,
1945,1945,7791,2021-10-07 15:05:21.961,-0.2199300130208333,
1946,1946,7795,2021-10-07 15:05:21.965,-0.2395025889078776,
1947,1947,7799,2021-10-07 15:05:21.969,-0.2687867482503255,
1948,1948,7803,2021-10-07 15:05:21.973,-0.1945304870605469,
1949,1949,7807,2021-10-07 15:05:21.977,-0.2786477406819662,
1950,1950,7811,2021-10-07 15:05:21.981,-0.2043914794921875,
1951,1951,7815,2021-10-07 15:05:21.985,-0.2262051900227865,
1952,1952,7819,2021-10-07 15:05:21.989,-0.2629597981770833,
1953,1953,7823,2021-10-07 15:05:21.993,-0.1967716217041016,
1954,1954,7827,2021-10-07 15:05:21.997,-0.2753607432047526,
1955,1955,7831,2021-10-07 15:05:22.001,-0.1910940806070963,
1956,1956,7835,2021-10-07 15:05:22.005,-0.2075290679931641,
1957,1957,7839,2021-10-07 15:05:22.009,-0.2403990427652995,
1958,1958,7843,2021-10-07 15:05:22.013,-0.1746590932210286,
1959,1959,7847,2021-10-07 15:05:22.017,-0.2635574340820313,
1960,1960,7851,2021-10-07 15:05:22.021,-0.1922893524169922,
1961,1961,7855,2021-10-07 15:05:22.025,-0.2061843872070312,
1962,1962,7859,2021-10-07 15:05:22.029,-0.2335262298583984,
1963,1963,7863,2021-10-07 15:05:22.033,-0.164947509765625,
1964,1964,7867,2021-10-07 15:05:22.037,-0.2602704366048177,
1965,1965,7871,2021-10-07 15:05:22.041,-0.1954269409179687,
1966,1966,7875,2021-10-07 15:05:22.045,-0.2127583821614583,
1967,1967,7879,2021-10-07 15:05:22.049,-0.2350203196207682,
1968,1968,7883,2021-10-07 15:05:22.053,-0.1640510559082031,
1969,1969,7887,2021-10-07 15:05:22.057,-0.2547423044840495,
1970,1970,7891,2021-10-07 15:05:22.061,-0.1924387613932291,
1971,1971,7895,2021-10-07 15:05:22.065,-0.2218723297119141,
1972,1972,7899,2021-10-07 15:05:22.069,-0.2539952596028646,
1973,1973,7903,2021-10-07 15:05:22.073,-0.1828765869140625,
1974,1974,7907,2021-10-07 15:05:22.077,-0.2695337931315104,
1975,1975,7911,2021-10-07 15:05:22.081,-0.1821295420328776,
1976,1976,7915,2021-10-07 15:05:22.085,-0.1249059041341145,
1977,1977,7919,2021-10-07 15:05:22.089,-0.0271924336751302,
1978,1978,7923,2021-10-07 15:05:22.093,0.1410420735677083,
1979,1979,7927,2021-10-07 15:05:22.097,0.1026439666748047,
1980,1980,7931,2021-10-07 15:05:22.101,0.1800378163655599,
1981,1981,7935,2021-10-07 15:05:22.105,0.1298364003499349,
1982,1982,7939,2021-10-07 15:05:22.109,-0.0996557871500651,
1983,1983,7943,2021-10-07 15:05:22.113,-0.5360794067382814,
1984,1984,7947,2021-10-07 15:05:22.117,-1.20632807413737,
1985,1985,7951,2021-10-07 15:05:22.121,-1.5562438964843752,
1986,1986,7955,2021-10-07 15:05:22.125,-1.5317408243815107,
1987,1987,7959,2021-10-07 15:05:22.129,-1.104580561319987,
1988,1988,7963,2021-10-07 15:05:22.133,-0.4392623901367188,
1989,1989,7967,2021-10-07 15:05:22.137,-0.0348122914632161,
1990,1990,7971,2021-10-07 15:05:22.141,0.3385607401529948,
1991,1991,7975,2021-10-07 15:05:22.145,0.4721323649088542,
1992,1992,7979,2021-10-07 15:05:22.149,0.473626454671224,
1993,1993,7983,2021-10-07 15:05:22.153,0.4897626241048177,
1994,1994,7987,2021-10-07 15:05:22.157,0.2977720896402995,
1995,1995,7991,2021-10-07 15:05:22.161,0.236365000406901,
1996,1996,7995,2021-10-07 15:05:22.165,0.0793361663818359,
1997,1997,7999,2021-10-07 15:05:22.169,-0.0742562611897786,
1998,1998,8003,2021-10-07 15:05:22.173,-0.1107120513916015,
1999,1999,8007,2021-10-07 15:05:22.177,-0.2823829650878907,
2000,2000,8011,2021-10-07 15:05:22.181,-0.2702808380126953,
2001,2001,8015,2021-10-07 15:05:22.185,-0.3192869822184245,
2002,2002,8019,2021-10-07 15:05:22.189,-0.3599262237548828,
2003,2003,8023,2021-10-07 15:05:22.193,-0.2901522318522135,
2004,2004,8027,2021-10-07 15:05:22.197,-0.3790505727132162,
2005,2005,8031,2021-10-07 15:05:22.201,-0.3092765808105469,
2006,2006,8035,2021-10-07 15:05:22.205,-0.3266080220540365,
2007,2007,8039,2021-10-07 15:05:22.209,-0.3523063659667969,
2008,2008,8043,2021-10-07 15:05:22.213,-0.2695337931315104,
2009,2009,8047,2021-10-07 15:05:22.217,-0.344537099202474,
2010,2010,8051,2021-10-07 15:05:22.221,-0.2631092071533203,
2011,2011,8055,2021-10-07 15:05:22.225,-0.2665456136067708,
2012,2012,8059,2021-10-07 15:05:22.229,-0.2776018778483073,
2013,2013,8063,2021-10-07 15:05:22.233,-0.1894505818684896,
2014,2014,8067,2021-10-07 15:05:22.237,-0.2641550699869792,
2015,2015,8071,2021-10-07 15:05:22.241,-0.1851177215576172,
2016,2016,8075,2021-10-07 15:05:22.245,-0.2094713846842448,
2017,2017,8079,2021-10-07 15:05:22.249,-0.2487659454345703,
2018,2018,8083,2021-10-07 15:05:22.253,-0.1882553100585937,
2019,2019,8087,2021-10-07 15:05:22.257,-0.2816359202067057,
2020,2020,8091,2021-10-07 15:05:22.261,-0.2088737487792969,
2021,2021,8095,2021-10-07 15:05:22.265,-0.2230676015218099,
2022,2022,8099,2021-10-07 15:05:22.269,-0.236813227335612,
2023,2023,8103,2021-10-07 15:05:22.273,-0.1597181955973307,
2024,2024,8107,2021-10-07 15:05:22.277,-0.251455307006836,
2025,2025,8111,2021-10-07 15:05:22.281,-0.1783943176269531,
2026,2026,8115,2021-10-07 15:05:22.285,-0.2028973897298177,
2027,2027,8119,2021-10-07 15:05:22.289,-0.2450307210286458,
2028,2028,8123,2021-10-07 15:05:22.293,-0.1919905344645182,
2029,2029,8127,2021-10-07 15:05:22.297,-0.2874628702799479,
2030,2030,8131,2021-10-07 15:05:22.301,-0.2187347412109375,
2031,2031,8135,2021-10-07 15:05:22.305,-0.2320321400960286,
2032,2032,8139,2021-10-07 15:05:22.309,-0.2536964416503907,
2033,2033,8143,2021-10-07 15:05:22.313,-0.1840718587239583,
2034,2034,8147,2021-10-07 15:05:22.317,-0.2804406483968099,
2035,2035,8151,2021-10-07 15:05:22.321,-0.2106666564941406,
2036,2036,8155,2021-10-07 15:05:22.325,-0.2299404144287109,
2037,2037,8159,2021-10-07 15:05:22.329,-0.2593739827473958,
2038,2038,8163,2021-10-07 15:05:22.333,-0.1836236317952474,
2039,2039,8167,2021-10-07 15:05:22.337,-0.2581787109375,
2040,2040,8171,2021-10-07 15:05:22.341,-0.1743602752685547,
2041,2041,8175,2021-10-07 15:05:22.345,-0.1904964447021484,
2042,2042,8179,2021-10-07 15:05:22.349,-0.2238146464029948,
2043,2043,8183,2021-10-07 15:05:22.353,-0.1556841532389323,
2044,2044,8187,2021-10-07 15:05:22.357,-0.2489153544108073,
2045,2045,8191,2021-10-07 15:05:22.361,-0.1801872253417969,
2046,2046,8195,2021-10-07 15:05:22.365,-0.2022997538248698,
2047,2047,8199,2021-10-07 15:05:22.369,-0.2474212646484375,
