,Unnamed: 0,Tick Time,RTC Time,ECG,marker
0,0,90,2021-09-27 17:22:02.627,-0.2054373423258463,
1,1,94,2021-09-27 17:22:02.631,-0.2335262298583984,
2,2,98,2021-09-27 17:22:02.635,-0.2046902974446615,
3,3,102,2021-09-27 17:22:02.639,-0.2550411224365235,
4,4,106,2021-09-27 17:22:02.643,-0.2460765838623047,
5,5,110,2021-09-27 17:22:02.647,-0.2087243398030599,
6,6,114,2021-09-27 17:22:02.651,-0.2383073170979818,
7,7,118,2021-09-27 17:22:02.655,-0.1893011728922526,
8,8,122,2021-09-27 17:22:02.659,-0.2058855692545573,
9,9,126,2021-09-27 17:22:02.663,-0.1870600382486979,
10,10,130,2021-09-27 17:22:02.667,-0.1582241058349609,
11,11,134,2021-09-27 17:22:02.671,-0.2094713846842448,
12,12,138,2021-09-27 17:22:02.675,-0.1670392354329427,
13,13,142,2021-09-27 17:22:02.679,-0.1887035369873047,
14,14,146,2021-09-27 17:22:02.683,-0.1973692576090495,
15,15,150,2021-09-27 17:22:02.687,-0.1771990458170573,
16,16,154,2021-09-27 17:22:02.691,-0.2254581451416016,
17,17,158,2021-09-27 17:22:02.695,-0.1867612202962239,
18,18,162,2021-09-27 17:22:02.699,-0.2269522349039713,
19,19,166,2021-09-27 17:22:02.703,-0.2320321400960286,
20,20,170,2021-09-27 17:22:02.707,-0.2124595642089844,
21,21,174,2021-09-27 17:22:02.711,-0.2523517608642578,
22,22,178,2021-09-27 17:22:02.715,-0.2034950256347656,
23,23,182,2021-09-27 17:22:02.719,-0.2386061350504557,
24,24,186,2021-09-27 17:22:02.723,-0.2377096811930338,
25,25,190,2021-09-27 17:22:02.727,-0.186611811319987,
26,26,194,2021-09-27 17:22:02.731,-0.2279980977376302,
27,27,198,2021-09-27 17:22:02.735,-0.2084255218505859,
28,28,202,2021-09-27 17:22:02.739,-0.2502600351969401,
29,29,206,2021-09-27 17:22:02.743,-0.2423413594563802,
30,30,210,2021-09-27 17:22:02.747,-0.2052879333496094,
31,31,214,2021-09-27 17:22:02.751,-0.2248605092366536,
32,32,218,2021-09-27 17:22:02.755,-0.1818307240804036,
33,33,222,2021-09-27 17:22:02.759,-0.2418931325276693,
34,34,226,2021-09-27 17:22:02.763,-0.2551905314127604,
35,35,230,2021-09-27 17:22:02.767,-0.2193323771158854,
36,36,234,2021-09-27 17:22:02.771,-0.2550411224365235,
37,37,238,2021-09-27 17:22:02.775,-0.2157465616861979,
38,38,242,2021-09-27 17:22:02.779,-0.2469730377197266,
39,39,246,2021-09-27 17:22:02.783,-0.2399508158365885,
40,40,250,2021-09-27 17:22:02.787,-0.2017021179199219,
41,41,254,2021-09-27 17:22:02.791,-0.215447743733724,
42,42,258,2021-09-27 17:22:02.795,-0.1612122853597005,
43,43,262,2021-09-27 17:22:02.799,-0.200656255086263,
44,44,266,2021-09-27 17:22:02.803,-0.214850107828776,
45,45,270,2021-09-27 17:22:02.807,-0.2015527089436849,
46,46,274,2021-09-27 17:22:02.811,-0.2649021148681641,
47,47,278,2021-09-27 17:22:02.815,-0.2290439605712891,
48,48,282,2021-09-27 17:22:02.819,-0.2398014068603516,
49,49,286,2021-09-27 17:22:02.823,-0.2426401774088541,
50,50,290,2021-09-27 17:22:02.827,-0.2353191375732422,
51,51,294,2021-09-27 17:22:02.831,-0.2720737457275391,
52,52,298,2021-09-27 17:22:02.835,-0.2238146464029948,
53,53,302,2021-09-27 17:22:02.839,-0.2408472696940104,
54,54,306,2021-09-27 17:22:02.843,-0.2188841501871745,
55,55,310,2021-09-27 17:22:02.847,-0.1691309611002604,
56,56,314,2021-09-27 17:22:02.851,-0.1887035369873047,
57,57,318,2021-09-27 17:22:02.855,-0.1382033030192057,
58,58,322,2021-09-27 17:22:02.859,-0.1822789510091146,
59,59,326,2021-09-27 17:22:02.863,-0.2147006988525391,
60,60,330,2021-09-27 17:22:02.867,-0.2130572001139323,
61,61,334,2021-09-27 17:22:02.871,-0.2562363942464193,
62,62,338,2021-09-27 17:22:02.875,-0.2003574371337891,
63,63,342,2021-09-27 17:22:02.879,-0.2250099182128906,
64,64,346,2021-09-27 17:22:02.883,-0.2218723297119141,
65,65,350,2021-09-27 17:22:02.887,-0.1958751678466797,
66,66,354,2021-09-27 17:22:02.891,-0.2336756388346354,
67,67,358,2021-09-27 17:22:02.895,-0.200656255086263,
68,68,362,2021-09-27 17:22:02.899,-0.2487659454345703,
69,69,366,2021-09-27 17:22:02.903,-0.2734184265136719,
70,70,370,2021-09-27 17:22:02.907,-0.2781995137532552,
71,71,374,2021-09-27 17:22:02.911,-0.3031508127848307,
72,72,378,2021-09-27 17:22:02.915,-0.222171147664388,
73,73,382,2021-09-27 17:22:02.919,-0.2130572001139323,
74,74,386,2021-09-27 17:22:02.923,-0.2042420705159505,
75,75,390,2021-09-27 17:22:02.927,-0.1946798960367838,
76,76,394,2021-09-27 17:22:02.931,-0.2471224466959635,
77,77,398,2021-09-27 17:22:02.935,-0.1984151204427083,
78,78,402,2021-09-27 17:22:02.939,-0.2184359232584635,
79,79,406,2021-09-27 17:22:02.943,-0.2055867513020833,
80,80,410,2021-09-27 17:22:02.947,-0.1537418365478516,
81,81,414,2021-09-27 17:22:02.951,-0.2279980977376302,
82,82,418,2021-09-27 17:22:02.955,-0.2332274119059245,
83,83,422,2021-09-27 17:22:02.959,-0.2276992797851562,
84,84,426,2021-09-27 17:22:02.963,-0.2117125193277995,
85,85,430,2021-09-27 17:22:02.967,-0.1529947916666666,
86,86,434,2021-09-27 17:22:02.971,-0.2202288309733073,
87,87,438,2021-09-27 17:22:02.975,-0.2375602722167969,
88,88,442,2021-09-27 17:22:02.979,-0.2708784739176432,
89,89,446,2021-09-27 17:22:02.983,-0.2916463216145833,
90,90,450,2021-09-27 17:22:02.987,-0.2042420705159505,
91,91,454,2021-09-27 17:22:02.991,-0.1500066121419271,
92,92,458,2021-09-27 17:22:02.995,-0.0062751770019531,
93,93,462,2021-09-27 17:22:02.999,0.0978628794352213,
94,94,466,2021-09-27 17:22:03.003,0.1585229237874349,
95,95,470,2021-09-27 17:22:03.007,0.2616151173909505,
96,96,474,2021-09-27 17:22:03.011,0.1210212707519531,
97,97,478,2021-09-27 17:22:03.015,-0.1893011728922526,
98,98,482,2021-09-27 17:22:03.019,-0.6055545806884767,
99,99,486,2021-09-27 17:22:03.023,-0.9281285603841148,
100,100,490,2021-09-27 17:22:03.027,-0.9844557444254558,
101,101,494,2021-09-27 17:22:03.031,-0.8821105957031251,
102,102,498,2021-09-27 17:22:03.035,-0.5843385060628256,
103,103,502,2021-09-27 17:22:03.039,-0.3566392262776693,
104,104,506,2021-09-27 17:22:03.043,-0.2692349751790365,
105,105,510,2021-09-27 17:22:03.047,-0.1716709136962891,
106,106,514,2021-09-27 17:22:03.051,-0.171969731648763,
107,107,518,2021-09-27 17:22:03.055,-0.1062297821044922,
108,108,522,2021-09-27 17:22:03.059,-0.0681304931640625,
109,109,526,2021-09-27 17:22:03.063,-0.0694751739501953,
110,110,530,2021-09-27 17:22:03.067,-0.0153891245524088,
111,111,534,2021-09-27 17:22:03.071,-0.0594647725423177,
112,112,538,2021-09-27 17:22:03.075,-0.0621541341145833,
113,113,542,2021-09-27 17:22:03.079,-0.0911394755045573,
114,114,546,2021-09-27 17:22:03.083,-0.1367092132568359,
115,115,550,2021-09-27 17:22:03.087,-0.1065286000569661,
116,116,554,2021-09-27 17:22:03.091,-0.1538912455240885,
117,117,558,2021-09-27 17:22:03.095,-0.1465702056884766,
118,118,562,2021-09-27 17:22:03.099,-0.1730155944824219,
119,119,566,2021-09-27 17:22:03.103,-0.2184359232584635,
120,120,570,2021-09-27 17:22:03.107,-0.200656255086263,
121,121,574,2021-09-27 17:22:03.111,-0.2536964416503907,
122,122,578,2021-09-27 17:22:03.115,-0.2229181925455729,
123,123,582,2021-09-27 17:22:03.119,-0.2169418334960937,
124,124,586,2021-09-27 17:22:03.123,-0.2389049530029297,
125,125,590,2021-09-27 17:22:03.127,-0.1964728037516276,
126,126,594,2021-09-27 17:22:03.131,-0.2460765838623047,
127,127,598,2021-09-27 17:22:03.135,-0.2526505788167318,
128,128,602,2021-09-27 17:22:03.139,-0.280141830444336,
129,129,606,2021-09-27 17:22:03.143,-0.2822335561116537,
130,130,610,2021-09-27 17:22:03.147,-0.2027479807535807,
131,131,614,2021-09-27 17:22:03.151,-0.2232170104980469,
132,132,618,2021-09-27 17:22:03.155,-0.1949787139892578,
133,133,622,2021-09-27 17:22:03.159,-0.2043914794921875,
134,134,626,2021-09-27 17:22:03.163,-0.2450307210286458,
135,135,630,2021-09-27 17:22:03.167,-0.2157465616861979,
136,136,634,2021-09-27 17:22:03.171,-0.2522023518880208,
137,137,638,2021-09-27 17:22:03.175,-0.2114137013753255,
138,138,642,2021-09-27 17:22:03.179,-0.2008056640625,
139,139,646,2021-09-27 17:22:03.183,-0.2182865142822266,
140,140,650,2021-09-27 17:22:03.187,-0.1776472727457682,
141,141,654,2021-09-27 17:22:03.191,-0.2345720926920573,
142,142,658,2021-09-27 17:22:03.195,-0.2262051900227865,
143,143,662,2021-09-27 17:22:03.199,-0.2253087361653646,
144,144,666,2021-09-27 17:22:03.203,-0.2303886413574219,
145,145,670,2021-09-27 17:22:03.207,-0.1837730407714844,
146,146,674,2021-09-27 17:22:03.211,-0.2305380503336588,
147,147,678,2021-09-27 17:22:03.215,-0.1997598012288411,
148,148,682,2021-09-27 17:22:03.219,-0.2141030629475911,
149,149,686,2021-09-27 17:22:03.223,-0.2589257558186849,
150,150,690,2021-09-27 17:22:03.227,-0.2274004618326823,
151,151,694,2021-09-27 17:22:03.231,-0.2761077880859375,
152,152,698,2021-09-27 17:22:03.235,-0.2572822570800782,
153,153,702,2021-09-27 17:22:03.239,-0.2536964416503907,
154,154,706,2021-09-27 17:22:03.243,-0.2602704366048177,
155,155,710,2021-09-27 17:22:03.247,-0.2012538909912109,
156,156,714,2021-09-27 17:22:03.251,-0.2378590901692708,
157,157,718,2021-09-27 17:22:03.255,-0.2087243398030599,
158,158,722,2021-09-27 17:22:03.259,-0.2108160654703776,
159,159,726,2021-09-27 17:22:03.263,-0.2480189005533854,
160,160,730,2021-09-27 17:22:03.267,-0.2121607462565104,
161,161,734,2021-09-27 17:22:03.271,-0.2556387583414714,
162,162,738,2021-09-27 17:22:03.275,-0.2306874593098958,
163,163,742,2021-09-27 17:22:03.279,-0.2284463246663411,
164,164,746,2021-09-27 17:22:03.283,-0.258029301961263,
165,165,750,2021-09-27 17:22:03.287,-0.2194817860921224,
166,166,754,2021-09-27 17:22:03.291,-0.2525011698404948,
167,167,758,2021-09-27 17:22:03.295,-0.2121607462565104,
168,168,762,2021-09-27 17:22:03.299,-0.208276112874349,
169,169,766,2021-09-27 17:22:03.303,-0.2375602722167969,
170,170,770,2021-09-27 17:22:03.307,-0.1985645294189453,
171,171,774,2021-09-27 17:22:03.311,-0.2351697285970052,
172,172,778,2021-09-27 17:22:03.315,-0.1996103922526041,
173,173,782,2021-09-27 17:22:03.319,-0.1885541280110677,
174,174,786,2021-09-27 17:22:03.323,-0.2033456166585286,
175,175,790,2021-09-27 17:22:03.327,-0.1562817891438802,
176,176,794,2021-09-27 17:22:03.331,-0.2030467987060547,
177,177,798,2021-09-27 17:22:03.335,-0.1825777689615885,
178,178,802,2021-09-27 17:22:03.339,-0.1894505818684896,
179,179,806,2021-09-27 17:22:03.343,-0.2100690205891927,
180,180,810,2021-09-27 17:22:03.347,-0.1713720957438151,
181,181,814,2021-09-27 17:22:03.351,-0.2312850952148437,
182,182,818,2021-09-27 17:22:03.355,-0.2312850952148437,
183,183,822,2021-09-27 17:22:03.359,-0.2353191375732422,
184,184,826,2021-09-27 17:22:03.363,-0.2393531799316406,
185,185,830,2021-09-27 17:22:03.367,-0.1780954996744791,
186,186,834,2021-09-27 17:22:03.371,-0.2182865142822266,
187,187,838,2021-09-27 17:22:03.375,-0.1961739857991536,
188,188,842,2021-09-27 17:22:03.379,-0.2136548360188802,
189,189,846,2021-09-27 17:22:03.383,-0.2660973866780599,
190,190,850,2021-09-27 17:22:03.387,-0.2306874593098958,
191,191,854,2021-09-27 17:22:03.391,-0.2690855662027995,
192,192,858,2021-09-27 17:22:03.395,-0.2353191375732422,
193,193,862,2021-09-27 17:22:03.399,-0.2239640553792318,
194,194,866,2021-09-27 17:22:03.403,-0.2371120452880859,
195,195,870,2021-09-27 17:22:03.407,-0.1849683125813802,
196,196,874,2021-09-27 17:22:03.411,-0.2303886413574219,
197,197,878,2021-09-27 17:22:03.415,-0.2105172475179036,
198,198,882,2021-09-27 17:22:03.419,-0.2208264668782552,
199,199,886,2021-09-27 17:22:03.423,-0.2489153544108073,
200,200,890,2021-09-27 17:22:03.427,-0.2106666564941406,
201,201,894,2021-09-27 17:22:03.431,-0.2477200826009115,
202,202,898,2021-09-27 17:22:03.435,-0.2127583821614583,
203,203,902,2021-09-27 17:22:03.439,-0.2170912424723307,
204,204,906,2021-09-27 17:22:03.443,-0.2474212646484375,
205,205,910,2021-09-27 17:22:03.447,-0.1919905344645182,
206,206,914,2021-09-27 17:22:03.451,-0.2205276489257812,
207,207,918,2021-09-27 17:22:03.455,-0.1924387613932291,
208,208,922,2021-09-27 17:22:03.459,-0.2048397064208984,
209,209,926,2021-09-27 17:22:03.463,-0.2403990427652995,
210,210,930,2021-09-27 17:22:03.467,-0.2061843872070312,
211,211,934,2021-09-27 17:22:03.471,-0.2450307210286458,
212,212,938,2021-09-27 17:22:03.475,-0.2157465616861979,
213,213,942,2021-09-27 17:22:03.479,-0.2133560180664062,
214,214,946,2021-09-27 17:22:03.483,-0.243686040242513,
215,215,950,2021-09-27 17:22:03.487,-0.2141030629475911,
216,216,954,2021-09-27 17:22:03.491,-0.258328119913737,
217,217,958,2021-09-27 17:22:03.495,-0.2269522349039713,
218,218,962,2021-09-27 17:22:03.499,-0.2181371053059896,
219,219,966,2021-09-27 17:22:03.503,-0.2236652374267578,
220,220,970,2021-09-27 17:22:03.507,-0.1685333251953125,
221,221,974,2021-09-27 17:22:03.511,-0.2188841501871745,
222,222,978,2021-09-27 17:22:03.515,-0.2190335591634115,
223,223,982,2021-09-27 17:22:03.519,-0.2339744567871094,
224,224,986,2021-09-27 17:22:03.523,-0.2453295389811198,
225,225,990,2021-09-27 17:22:03.527,-0.1921399434407552,
226,226,994,2021-09-27 17:22:03.531,-0.2323309580485026,
227,227,998,2021-09-27 17:22:03.535,-0.2117125193277995,
228,228,1002,2021-09-27 17:22:03.539,-0.2130572001139323,
229,229,1006,2021-09-27 17:22:03.543,-0.229342778523763,
230,230,1010,2021-09-27 17:22:03.547,-0.1816813151041666,
231,231,1014,2021-09-27 17:22:03.551,-0.2136548360188802,
232,232,1018,2021-09-27 17:22:03.555,-0.193335215250651,
233,233,1022,2021-09-27 17:22:03.559,-0.2179876963297526,
234,234,1026,2021-09-27 17:22:03.563,-0.2538458506266276,
235,235,1030,2021-09-27 17:22:03.567,-0.2105172475179036,
236,236,1034,2021-09-27 17:22:03.571,-0.2409966786702474,
237,237,1038,2021-09-27 17:22:03.575,-0.2025985717773437,
238,238,1042,2021-09-27 17:22:03.579,-0.2028973897298177,
239,239,1046,2021-09-27 17:22:03.583,-0.2333768208821615,
240,240,1050,2021-09-27 17:22:03.587,-0.2028973897298177,
241,241,1054,2021-09-27 17:22:03.591,-0.2414449055989583,
242,242,1058,2021-09-27 17:22:03.595,-0.1984151204427083,
243,243,1062,2021-09-27 17:22:03.599,-0.1969210306803385,
244,244,1066,2021-09-27 17:22:03.603,-0.2333768208821615,
245,245,1070,2021-09-27 17:22:03.607,-0.2084255218505859,
246,246,1074,2021-09-27 17:22:03.611,-0.2544434865315755,
247,247,1078,2021-09-27 17:22:03.615,-0.229641596476237,
248,248,1082,2021-09-27 17:22:03.619,-0.2442836761474609,
249,249,1086,2021-09-27 17:22:03.623,-0.2713267008463542,
250,250,1090,2021-09-27 17:22:03.627,-0.2282969156901041,
251,251,1094,2021-09-27 17:22:03.631,-0.258029301961263,
252,252,1098,2021-09-27 17:22:03.635,-0.2176888783772786,
253,253,1102,2021-09-27 17:22:03.639,-0.2164936065673828,
254,254,1106,2021-09-27 17:22:03.643,-0.2321815490722656,
255,255,1110,2021-09-27 17:22:03.647,-0.1909446716308594,
256,256,1114,2021-09-27 17:22:03.651,-0.2345720926920573,
257,257,1118,2021-09-27 17:22:03.655,-0.1955763498942057,
258,258,1122,2021-09-27 17:22:03.659,-0.1860141754150391,
259,259,1126,2021-09-27 17:22:03.663,-0.2063337961832682,
260,260,1130,2021-09-27 17:22:03.667,-0.1795895894368489,
261,261,1134,2021-09-27 17:22:03.671,-0.2306874593098958,
262,262,1138,2021-09-27 17:22:03.675,-0.2031962076822916,
263,263,1142,2021-09-27 17:22:03.679,-0.2172406514485677,
264,264,1146,2021-09-27 17:22:03.683,-0.2560869852701823,
265,265,1150,2021-09-27 17:22:03.687,-0.2244122823079427,
266,266,1154,2021-09-27 17:22:03.691,-0.2701314290364583,
267,267,1158,2021-09-27 17:22:03.695,-0.2490647633870443,
268,268,1162,2021-09-27 17:22:03.699,-0.2420425415039062,
269,269,1166,2021-09-27 17:22:03.703,-0.2324803670247396,
270,270,1170,2021-09-27 17:22:03.707,-0.1332728068033854,
271,271,1174,2021-09-27 17:22:03.711,-0.0847148895263672,
272,272,1178,2021-09-27 17:22:03.715,0.0652917226155599,
273,273,1182,2021-09-27 17:22:03.719,0.186312993367513,
274,274,1186,2021-09-27 17:22:03.723,0.2646032969156901,
275,275,1190,2021-09-27 17:22:03.727,0.2953815460205078,
276,276,1194,2021-09-27 17:22:03.731,0.0164349873860677,
277,277,1198,2021-09-27 17:22:03.735,-0.3784529368082682,
278,278,1202,2021-09-27 17:22:03.739,-0.7912699381510417,
279,279,1206,2021-09-27 17:22:03.743,-1.091133753458659,
280,280,1210,2021-09-27 17:22:03.747,-1.0873985290527346,
281,281,1214,2021-09-27 17:22:03.751,-0.9175205230712892,
282,282,1218,2021-09-27 17:22:03.755,-0.588970184326172,
283,283,1222,2021-09-27 17:22:03.759,-0.3318373362223307,
284,284,1226,2021-09-27 17:22:03.763,-0.1776472727457682,
285,285,1230,2021-09-27 17:22:03.767,-0.042432149251302,
286,286,1234,2021-09-27 17:22:03.771,-0.0516955057779947,
287,287,1238,2021-09-27 17:22:03.775,-0.0149408976236979,
288,288,1242,2021-09-27 17:22:03.779,-0.0149408976236979,
289,289,1246,2021-09-27 17:22:03.783,-0.0457191467285156,
290,290,1250,2021-09-27 17:22:03.787,-0.0301806131998697,
291,291,1254,2021-09-27 17:22:03.791,-0.0975640614827474,
292,292,1258,2021-09-27 17:22:03.795,-0.0790373484293619,
293,293,1262,2021-09-27 17:22:03.799,-0.085461934407552,
294,294,1266,2021-09-27 17:22:03.803,-0.1229635874430338,
295,295,1270,2021-09-27 17:22:03.807,-0.1126543680826823,
296,296,1274,2021-09-27 17:22:03.811,-0.2024491628011068,
297,297,1278,2021-09-27 17:22:03.815,-0.2191829681396484,
298,298,1282,2021-09-27 17:22:03.819,-0.2347215016682943,
299,299,1286,2021-09-27 17:22:03.823,-0.243686040242513,
300,300,1290,2021-09-27 17:22:03.827,-0.178991953531901,
301,301,1294,2021-09-27 17:22:03.831,-0.2069314320882161,
302,302,1298,2021-09-27 17:22:03.835,-0.1797389984130859,
303,303,1302,2021-09-27 17:22:03.839,-0.2018515268961588,
304,304,1306,2021-09-27 17:22:03.843,-0.243984858194987,
305,305,1310,2021-09-27 17:22:03.847,-0.207678476969401,
306,306,1314,2021-09-27 17:22:03.851,-0.2484671274820963,
307,307,1318,2021-09-27 17:22:03.855,-0.2169418334960937,
308,308,1322,2021-09-27 17:22:03.859,-0.2312850952148437,
309,309,1326,2021-09-27 17:22:03.863,-0.2556387583414714,
310,310,1330,2021-09-27 17:22:03.867,-0.2241134643554687,
311,311,1334,2021-09-27 17:22:03.871,-0.279544194539388,
312,312,1338,2021-09-27 17:22:03.875,-0.2501106262207032,
313,313,1342,2021-09-27 17:22:03.879,-0.2412954966227213,
314,314,1346,2021-09-27 17:22:03.883,-0.2424907684326172,
315,315,1350,2021-09-27 17:22:03.887,-0.1925881703694661,
316,316,1354,2021-09-27 17:22:03.891,-0.2360661824544271,
317,317,1358,2021-09-27 17:22:03.895,-0.2020009358723958,
318,318,1362,2021-09-27 17:22:03.899,-0.2015527089436849,
319,319,1366,2021-09-27 17:22:03.903,-0.2233664194742838,
320,320,1370,2021-09-27 17:22:03.907,-0.1870600382486979,
321,321,1374,2021-09-27 17:22:03.911,-0.2332274119059245,
322,322,1378,2021-09-27 17:22:03.915,-0.2039432525634766,
323,323,1382,2021-09-27 17:22:03.919,-0.2108160654703776,
324,324,1386,2021-09-27 17:22:03.923,-0.236962636311849,
325,325,1390,2021-09-27 17:22:03.927,-0.1916917165120443,
326,326,1394,2021-09-27 17:22:03.931,-0.2318827311197916,
327,327,1398,2021-09-27 17:22:03.935,-0.2063337961832682,
328,328,1402,2021-09-27 17:22:03.939,-0.2250099182128906,
329,329,1406,2021-09-27 17:22:03.943,-0.2604198455810547,
330,330,1410,2021-09-27 17:22:03.947,-0.2112642923990885,
331,331,1414,2021-09-27 17:22:03.951,-0.2542940775553385,
332,332,1418,2021-09-27 17:22:03.955,-0.2640056610107422,
333,333,1422,2021-09-27 17:22:03.959,-0.2403990427652995,
334,334,1426,2021-09-27 17:22:03.963,-0.2623621622721354,
335,335,1430,2021-09-27 17:22:03.967,-0.1948293050130208,
336,336,1434,2021-09-27 17:22:03.971,-0.2232170104980469,
337,337,1438,2021-09-27 17:22:03.975,-0.2274004618326823,
338,338,1442,2021-09-27 17:22:03.979,-0.2203782399495443,
339,339,1446,2021-09-27 17:22:03.983,-0.272970199584961,
340,340,1450,2021-09-27 17:22:03.987,-0.2330780029296875,
341,341,1454,2021-09-27 17:22:03.991,-0.2462259928385416,
342,342,1458,2021-09-27 17:22:03.995,-0.2218723297119141,
343,343,1462,2021-09-27 17:22:03.999,-0.2030467987060547,
344,344,1466,2021-09-27 17:22:04.003,-0.2539952596028646,
345,345,1470,2021-09-27 17:22:04.007,-0.2206770579020182,
346,346,1474,2021-09-27 17:22:04.011,-0.2634080251057943,
347,347,1478,2021-09-27 17:22:04.015,-0.2665456136067708,
348,348,1482,2021-09-27 17:22:04.019,-0.2238146464029948,
349,349,1486,2021-09-27 17:22:04.023,-0.236365000406901,
350,350,1490,2021-09-27 17:22:04.027,-0.1788425445556641,
351,351,1494,2021-09-27 17:22:04.031,-0.1979668935139974,
352,352,1498,2021-09-27 17:22:04.035,-0.1837730407714844,
353,353,1502,2021-09-27 17:22:04.039,-0.1616605122884114,
354,354,1506,2021-09-27 17:22:04.043,-0.2305380503336588,
355,355,1510,2021-09-27 17:22:04.047,-0.214999516805013,
356,356,1514,2021-09-27 17:22:04.051,-0.2362155914306641,
357,357,1518,2021-09-27 17:22:04.055,-0.2046902974446615,
358,358,1522,2021-09-27 17:22:04.059,-0.1609134674072266,
359,359,1526,2021-09-27 17:22:04.063,-0.1900482177734375,
360,360,1530,2021-09-27 17:22:04.067,-0.1594193776448567,
361,361,1534,2021-09-27 17:22:04.071,-0.214850107828776,
362,362,1538,2021-09-27 17:22:04.075,-0.2263545989990234,
363,363,1542,2021-09-27 17:22:04.079,-0.2037938435872396,
364,364,1546,2021-09-27 17:22:04.083,-0.2402496337890625,
365,365,1550,2021-09-27 17:22:04.087,-0.186312993367513,
366,366,1554,2021-09-27 17:22:04.091,-0.215298334757487,
367,367,1558,2021-09-27 17:22:04.095,-0.2241134643554687,
368,368,1562,2021-09-27 17:22:04.099,-0.2070808410644531,
369,369,1566,2021-09-27 17:22:04.103,-0.2475706736246745,
370,370,1570,2021-09-27 17:22:04.107,-0.2021503448486328,
371,371,1574,2021-09-27 17:22:04.111,-0.2390543619791666,
372,372,1578,2021-09-27 17:22:04.115,-0.2478694915771484,
373,373,1582,2021-09-27 17:22:04.119,-0.2327791849772135,
374,374,1586,2021-09-27 17:22:04.123,-0.2626609802246094,
375,375,1590,2021-09-27 17:22:04.127,-0.208276112874349,
376,376,1594,2021-09-27 17:22:04.131,-0.2311356862386068,
377,377,1598,2021-09-27 17:22:04.135,-0.2374108632405599,
378,378,1602,2021-09-27 17:22:04.139,-0.2105172475179036,
379,379,1606,2021-09-27 17:22:04.143,-0.2350203196207682,
380,380,1610,2021-09-27 17:22:04.147,-0.1782449086507161,
381,381,1614,2021-09-27 17:22:04.151,-0.2179876963297526,
382,382,1618,2021-09-27 17:22:04.155,-0.2330780029296875,
383,383,1622,2021-09-27 17:22:04.159,-0.2187347412109375,
384,384,1626,2021-09-27 17:22:04.163,-0.2553399403889974,
385,385,1630,2021-09-27 17:22:04.167,-0.2048397064208984,
386,386,1634,2021-09-27 17:22:04.171,-0.222619374593099,
387,387,1638,2021-09-27 17:22:04.175,-0.215298334757487,
388,388,1642,2021-09-27 17:22:04.179,-0.201104482014974,
389,389,1646,2021-09-27 17:22:04.183,-0.2486165364583333,
390,390,1650,2021-09-27 17:22:04.187,-0.2103678385416666,
391,391,1654,2021-09-27 17:22:04.191,-0.243536631266276,
392,392,1658,2021-09-27 17:22:04.195,-0.2471224466959635,
393,393,1662,2021-09-27 17:22:04.199,-0.2250099182128906,
394,394,1666,2021-09-27 17:22:04.203,-0.250857671101888,
395,395,1670,2021-09-27 17:22:04.207,-0.1957257588704427,
396,396,1674,2021-09-27 17:22:04.211,-0.2108160654703776,
397,397,1678,2021-09-27 17:22:04.215,-0.1945304870605469,
398,398,1682,2021-09-27 17:22:04.219,-0.1640510559082031,
399,399,1686,2021-09-27 17:22:04.223,-0.2025985717773437,
400,400,1690,2021-09-27 17:22:04.227,-0.1764520009358724,
401,401,1694,2021-09-27 17:22:04.231,-0.2342732747395833,
402,402,1698,2021-09-27 17:22:04.235,-0.2520529429117839,
403,403,1702,2021-09-27 17:22:04.239,-0.2333768208821615,
404,404,1706,2021-09-27 17:22:04.243,-0.2596728006998698,
405,405,1710,2021-09-27 17:22:04.247,-0.2025985717773437,
406,406,1714,2021-09-27 17:22:04.251,-0.2164936065673828,
407,407,1718,2021-09-27 17:22:04.255,-0.200656255086263,
408,408,1722,2021-09-27 17:22:04.259,-0.1803366343180338,
409,409,1726,2021-09-27 17:22:04.263,-0.2236652374267578,
410,410,1730,2021-09-27 17:22:04.267,-0.1916917165120443,
411,411,1734,2021-09-27 17:22:04.271,-0.2260557810465495,
412,412,1738,2021-09-27 17:22:04.275,-0.2158959706624349,
413,413,1742,2021-09-27 17:22:04.279,-0.1951281229654948,
414,414,1746,2021-09-27 17:22:04.283,-0.2554893493652344,
415,415,1750,2021-09-27 17:22:04.287,-0.2392037709554036,
416,416,1754,2021-09-27 17:22:04.291,-0.272223154703776,
417,417,1758,2021-09-27 17:22:04.295,-0.251305898030599,
418,418,1762,2021-09-27 17:22:04.299,-0.2182865142822266,
419,419,1766,2021-09-27 17:22:04.303,-0.2601210276285807,
420,420,1770,2021-09-27 17:22:04.307,-0.2172406514485677,
421,421,1774,2021-09-27 17:22:04.311,-0.2396519978841146,
422,422,1778,2021-09-27 17:22:04.315,-0.2239640553792318,
423,423,1782,2021-09-27 17:22:04.319,-0.1930363972981771,
424,424,1786,2021-09-27 17:22:04.323,-0.2348709106445312,
425,425,1790,2021-09-27 17:22:04.327,-0.1991621653238932,
426,426,1794,2021-09-27 17:22:04.331,-0.2305380503336588,
427,427,1798,2021-09-27 17:22:04.335,-0.2194817860921224,
428,428,1802,2021-09-27 17:22:04.339,-0.1857153574625651,
429,429,1806,2021-09-27 17:22:04.343,-0.2142524719238281,
430,430,1810,2021-09-27 17:22:04.347,-0.172268549601237,
431,431,1814,2021-09-27 17:22:04.351,-0.2109654744466146,
432,432,1818,2021-09-27 17:22:04.355,-0.2203782399495443,
433,433,1822,2021-09-27 17:22:04.359,-0.1984151204427083,
434,434,1826,2021-09-27 17:22:04.363,-0.2445824940999349,
435,435,1830,2021-09-27 17:22:04.367,-0.2124595642089844,
436,436,1834,2021-09-27 17:22:04.371,-0.2693843841552735,
437,437,1838,2021-09-27 17:22:04.375,-0.2741654713948568,
438,438,1842,2021-09-27 17:22:04.379,-0.2127583821614583,
439,439,1846,2021-09-27 17:22:04.383,-0.1652463277180989,
440,440,1850,2021-09-27 17:22:04.387,0.0082174936930338,
441,441,1854,2021-09-27 17:22:04.391,0.1246070861816406,
442,442,1858,2021-09-27 17:22:04.395,0.2663962046305339,
443,443,1862,2021-09-27 17:22:04.399,0.3563404083251953,
444,444,1866,2021-09-27 17:22:04.403,0.1912434895833333,
445,445,1870,2021-09-27 17:22:04.407,-0.1440302530924479,
446,446,1874,2021-09-27 17:22:04.411,-0.6435044606526693,
447,447,1878,2021-09-27 17:22:04.415,-1.0231526692708337,
448,448,1882,2021-09-27 17:22:04.419,-1.1546325683593752,
449,449,1886,2021-09-27 17:22:04.423,-1.0539309183756511,
450,450,1890,2021-09-27 17:22:04.427,-0.7167148590087892,
451,451,1894,2021-09-27 17:22:04.431,-0.4482269287109375,
452,452,1898,2021-09-27 17:22:04.435,-0.2445824940999349,
453,453,1902,2021-09-27 17:22:04.439,-0.1234118143717448,
454,454,1906,2021-09-27 17:22:04.443,-0.1137002309163411,
455,455,1910,2021-09-27 17:22:04.447,-0.0289853413899739,
456,456,1914,2021-09-27 17:22:04.451,-0.0132973988850911,
457,457,1918,2021-09-27 17:22:04.455,-0.0008964538574218,
458,458,1922,2021-09-27 17:22:04.459,-0.007022221883138,
459,459,1926,2021-09-27 17:22:04.463,-0.092932383219401,
460,460,1930,2021-09-27 17:22:04.467,-0.0960699717203776,
461,461,1934,2021-09-27 17:22:04.471,-0.1501560211181641,
462,462,1938,2021-09-27 17:22:04.475,-0.1374562581380208,
463,463,1942,2021-09-27 17:22:04.479,-0.0851631164550781,
464,464,1946,2021-09-27 17:22:04.483,-0.1068274180094401,
465,465,1950,2021-09-27 17:22:04.487,-0.0965181986490885,
466,466,1954,2021-09-27 17:22:04.491,-0.1767508188883463,
467,467,1958,2021-09-27 17:22:04.495,-0.1967716217041016,
468,468,1962,2021-09-27 17:22:04.499,-0.1733144124348958,
469,469,1966,2021-09-27 17:22:04.503,-0.2170912424723307,
470,470,1970,2021-09-27 17:22:04.507,-0.1913928985595703,
471,471,1974,2021-09-27 17:22:04.511,-0.2429389953613281,
472,472,1978,2021-09-27 17:22:04.515,-0.2474212646484375,
473,473,1982,2021-09-27 17:22:04.519,-0.2190335591634115,
474,474,1986,2021-09-27 17:22:04.523,-0.2571328481038412,
475,475,1990,2021-09-27 17:22:04.527,-0.2185853322347005,
476,476,1994,2021-09-27 17:22:04.531,-0.2626609802246094,
477,477,1998,2021-09-27 17:22:04.535,-0.2611668904622396,
478,478,2002,2021-09-27 17:22:04.539,-0.2275498708089193,
479,479,2006,2021-09-27 17:22:04.543,-0.287014643351237,
480,480,2010,2021-09-27 17:22:04.547,-0.2616151173909505,
481,481,2014,2021-09-27 17:22:04.551,-0.2767054239908854,
482,482,2018,2021-09-27 17:22:04.555,-0.2399508158365885,
483,483,2022,2021-09-27 17:22:04.559,-0.1709238688151041,
484,484,2026,2021-09-27 17:22:04.563,-0.186611811319987,
485,485,2030,2021-09-27 17:22:04.567,-0.1592699686686198,
486,486,2034,2021-09-27 17:22:04.571,-0.2235158284505208,
487,487,2038,2021-09-27 17:22:04.575,-0.2401002248128255,
488,488,2042,2021-09-27 17:22:04.579,-0.2129077911376953,
489,489,2046,2021-09-27 17:22:04.583,-0.2372614542643229,
490,490,2050,2021-09-27 17:22:04.587,-0.1860141754150391,
491,491,2054,2021-09-27 17:22:04.591,-0.21514892578125,
492,492,2058,2021-09-27 17:22:04.595,-0.2187347412109375,
493,493,2062,2021-09-27 17:22:04.599,-0.2031962076822916,
494,494,2066,2021-09-27 17:22:04.603,-0.2545928955078125,
495,495,2070,2021-09-27 17:22:04.607,-0.2196311950683594,
496,496,2074,2021-09-27 17:22:04.611,-0.2463754018147786,
497,497,2078,2021-09-27 17:22:04.615,-0.2333768208821615,
498,498,2082,2021-09-27 17:22:04.619,-0.2028973897298177,
499,499,2086,2021-09-27 17:22:04.623,-0.2420425415039062,
500,500,2090,2021-09-27 17:22:04.627,-0.2132066090901693,
501,501,2094,2021-09-27 17:22:04.631,-0.2602704366048177,
502,502,2098,2021-09-27 17:22:04.635,-0.2620633443196615,
503,503,2102,2021-09-27 17:22:04.639,-0.2124595642089844,
504,504,2106,2021-09-27 17:22:04.643,-0.2294921875,
505,505,2110,2021-09-27 17:22:04.647,-0.1830259958902995,
506,506,2114,2021-09-27 17:22:04.651,-0.2360661824544271,
507,507,2118,2021-09-27 17:22:04.655,-0.2529493967692057,
508,508,2122,2021-09-27 17:22:04.659,-0.2357673645019531,
509,509,2126,2021-09-27 17:22:04.663,-0.2879110972086589,
510,510,2130,2021-09-27 17:22:04.667,-0.2472718556722005,
511,511,2134,2021-09-27 17:22:04.671,-0.2672926584879557,
512,512,2138,2021-09-27 17:22:04.675,-0.2451801300048828,
513,513,2142,2021-09-27 17:22:04.679,-0.2015527089436849,
514,514,2146,2021-09-27 17:22:04.683,-0.2251593271891276,
515,515,2150,2021-09-27 17:22:04.687,-0.1795895894368489,
516,516,2154,2021-09-27 17:22:04.691,-0.2271016438802083,
517,517,2158,2021-09-27 17:22:04.695,-0.2336756388346354,
518,518,2162,2021-09-27 17:22:04.699,-0.2040926615397135,
519,519,2166,2021-09-27 17:22:04.703,-0.2351697285970052,
520,520,2170,2021-09-27 17:22:04.707,-0.1824283599853516,
521,521,2174,2021-09-27 17:22:04.711,-0.2208264668782552,
522,522,2178,2021-09-27 17:22:04.715,-0.2281475067138672,
523,523,2182,2021-09-27 17:22:04.719,-0.1978174845377604,
524,524,2186,2021-09-27 17:22:04.723,-0.2194817860921224,
525,525,2190,2021-09-27 17:22:04.727,-0.1594193776448567,
526,526,2194,2021-09-27 17:22:04.731,-0.179141362508138,
527,527,2198,2021-09-27 17:22:04.735,-0.1803366343180338,
528,528,2202,2021-09-27 17:22:04.739,-0.1627063751220703,
529,529,2206,2021-09-27 17:22:04.743,-0.2147006988525391,
530,530,2210,2021-09-27 17:22:04.747,-0.1840718587239583,
531,531,2214,2021-09-27 17:22:04.751,-0.2193323771158854,
532,532,2218,2021-09-27 17:22:04.755,-0.2230676015218099,
533,533,2222,2021-09-27 17:22:04.759,-0.2063337961832682,
534,534,2226,2021-09-27 17:22:04.763,-0.2486165364583333,
535,535,2230,2021-09-27 17:22:04.767,-0.2048397064208984,
536,536,2234,2021-09-27 17:22:04.771,-0.2383073170979818,
537,537,2238,2021-09-27 17:22:04.775,-0.2459271748860677,
538,538,2242,2021-09-27 17:22:04.779,-0.2427895863850911,
539,539,2246,2021-09-27 17:22:04.783,-0.2755101521809896,
540,540,2250,2021-09-27 17:22:04.787,-0.2072302500406901,
541,541,2254,2021-09-27 17:22:04.791,-0.2265040079752604,
542,542,2258,2021-09-27 17:22:04.795,-0.2254581451416016,
543,543,2262,2021-09-27 17:22:04.799,-0.200656255086263,
544,544,2266,2021-09-27 17:22:04.803,-0.2326297760009766,
545,545,2270,2021-09-27 17:22:04.807,-0.1821295420328776,
546,546,2274,2021-09-27 17:22:04.811,-0.2241134643554687,
547,547,2278,2021-09-27 17:22:04.815,-0.2457777659098307,
548,548,2282,2021-09-27 17:22:04.819,-0.2314345041910807,Start
549,549,2286,2021-09-27 17:22:04.823,-0.2610174814860026,
550,550,2290,2021-09-27 17:22:04.827,-0.2070808410644531,
551,551,2294,2021-09-27 17:22:04.831,-0.2285957336425781,
552,552,2298,2021-09-27 17:22:04.835,-0.2409966786702474,
553,553,2302,2021-09-27 17:22:04.839,-0.2333768208821615,
554,554,2306,2021-09-27 17:22:04.843,-0.2587763468424479,
555,555,2310,2021-09-27 17:22:04.847,-0.1851177215576172,
556,556,2314,2021-09-27 17:22:04.851,-0.1960245768229166,
557,557,2318,2021-09-27 17:22:04.855,-0.2064832051595052,
558,558,2322,2021-09-27 17:22:04.859,-0.2196311950683594,
559,559,2326,2021-09-27 17:22:04.863,-0.2698326110839844,
560,560,2330,2021-09-27 17:22:04.867,-0.2130572001139323,
561,561,2334,2021-09-27 17:22:04.871,-0.2248605092366536,
562,562,2338,2021-09-27 17:22:04.875,-0.2085749308268229,
563,563,2342,2021-09-27 17:22:04.879,-0.1782449086507161,
564,564,2346,2021-09-27 17:22:04.883,-0.2236652374267578,
565,565,2350,2021-09-27 17:22:04.887,-0.1928869883219401,
566,566,2354,2021-09-27 17:22:04.891,-0.2202288309733073,
567,567,2358,2021-09-27 17:22:04.895,-0.2057361602783203,
568,568,2362,2021-09-27 17:22:04.899,-0.1913928985595703,
569,569,2366,2021-09-27 17:22:04.903,-0.258477528889974,
570,570,2370,2021-09-27 17:22:04.907,-0.2332274119059245,
571,571,2374,2021-09-27 17:22:04.911,-0.2613162994384766,
572,572,2378,2021-09-27 17:22:04.915,-0.2330780029296875,
573,573,2382,2021-09-27 17:22:04.919,-0.1903470357259114,
574,574,2386,2021-09-27 17:22:04.923,-0.229641596476237,
575,575,2390,2021-09-27 17:22:04.927,-0.1961739857991536,
576,576,2394,2021-09-27 17:22:04.931,-0.222171147664388,
577,577,2398,2021-09-27 17:22:04.935,-0.2066326141357422,
578,578,2402,2021-09-27 17:22:04.939,-0.1816813151041666,
579,579,2406,2021-09-27 17:22:04.943,-0.2332274119059245,
580,580,2410,2021-09-27 17:22:04.947,-0.2042420705159505,
581,581,2414,2021-09-27 17:22:04.951,-0.2233664194742838,
582,582,2418,2021-09-27 17:22:04.955,-0.2462259928385416,
583,583,2422,2021-09-27 17:22:04.959,-0.1872094472249349,
584,584,2426,2021-09-27 17:22:04.963,-0.2244122823079427,
585,585,2430,2021-09-27 17:22:04.967,-0.2031962076822916,
586,586,2434,2021-09-27 17:22:04.971,-0.222469965616862,
587,587,2438,2021-09-27 17:22:04.975,-0.2421919504801432,
588,588,2442,2021-09-27 17:22:04.979,-0.1970704396565755,
589,589,2446,2021-09-27 17:22:04.983,-0.2472718556722005,
590,590,2450,2021-09-27 17:22:04.987,-0.2262051900227865,
591,591,2454,2021-09-27 17:22:04.991,-0.2356179555257161,
592,592,2458,2021-09-27 17:22:04.995,-0.2638562520345052,
593,593,2462,2021-09-27 17:22:04.999,-0.2238146464029948,
594,594,2466,2021-09-27 17:22:05.003,-0.2626609802246094,
595,595,2470,2021-09-27 17:22:05.007,-0.2265040079752604,
596,596,2474,2021-09-27 17:22:05.011,-0.2175394694010416,
597,597,2478,2021-09-27 17:22:05.015,-0.222619374593099,
598,598,2482,2021-09-27 17:22:05.019,-0.1760037740071614,
599,599,2486,2021-09-27 17:22:05.023,-0.2278486887613932,
600,600,2490,2021-09-27 17:22:05.027,-0.2088737487792969,
601,601,2494,2021-09-27 17:22:05.031,-0.2187347412109375,
602,602,2498,2021-09-27 17:22:05.035,-0.2320321400960286,
603,603,2502,2021-09-27 17:22:05.039,-0.1724179585774739,
604,604,2506,2021-09-27 17:22:05.043,-0.222320556640625,
605,605,2510,2021-09-27 17:22:05.047,-0.21514892578125,
606,606,2514,2021-09-27 17:22:05.051,-0.2268028259277344,
607,607,2518,2021-09-27 17:22:05.055,-0.2384567260742187,
608,608,2522,2021-09-27 17:22:05.059,-0.1870600382486979,
609,609,2526,2021-09-27 17:22:05.063,-0.2302392323811849,
610,610,2530,2021-09-27 17:22:05.067,-0.2042420705159505,
611,611,2534,2021-09-27 17:22:05.071,-0.2248605092366536,
612,612,2538,2021-09-27 17:22:05.075,-0.265649159749349,
613,613,2542,2021-09-27 17:22:05.079,-0.2049891153971354,
614,614,2546,2021-09-27 17:22:05.083,-0.1842212677001953,
615,615,2550,2021-09-27 17:22:05.087,-0.0409380594889322,
616,616,2554,2021-09-27 17:22:05.091,0.1051839192708333,
617,617,2558,2021-09-27 17:22:05.095,0.2184359232584635,
618,618,2562,2021-09-27 17:22:05.099,0.3282515207926432,
619,619,2566,2021-09-27 17:22:05.103,0.1954269409179687,
620,620,2570,2021-09-27 17:22:05.107,-0.1205730438232422,
621,621,2574,2021-09-27 17:22:05.111,-0.574626922607422,
622,622,2578,2021-09-27 17:22:05.115,-0.9647337595621746,
623,623,2582,2021-09-27 17:22:05.119,-1.092926661173503,
624,624,2586,2021-09-27 17:22:05.123,-1.0241985321044924,
625,625,2590,2021-09-27 17:22:05.127,-0.7147725423177084,
626,626,2594,2021-09-27 17:22:05.131,-0.4217815399169922,
627,627,2598,2021-09-27 17:22:05.135,-0.2399508158365885,
628,628,2602,2021-09-27 17:22:05.139,-0.1011498769124349,
629,629,2606,2021-09-27 17:22:05.143,-0.1045862833658854,
630,630,2610,2021-09-27 17:22:05.147,-0.0436274210611979,
631,631,2614,2021-09-27 17:22:05.151,-0.0265947977701822,
632,632,2618,2021-09-27 17:22:05.155,-0.057223637898763,
633,633,2622,2021-09-27 17:22:05.159,-0.0385475158691406,
634,634,2626,2021-09-27 17:22:05.163,-0.0962193806966145,
635,635,2630,2021-09-27 17:22:05.167,-0.0631999969482422,
636,636,2634,2021-09-27 17:22:05.171,-0.0627517700195312,
637,637,2638,2021-09-27 17:22:05.175,-0.1086203257242838,
638,638,2642,2021-09-27 17:22:05.179,-0.1157919565836588,
639,639,2646,2021-09-27 17:22:05.183,-0.1919905344645182,
640,640,2650,2021-09-27 17:22:05.187,-0.1691309611002604,
641,641,2654,2021-09-27 17:22:05.191,-0.171969731648763,
642,642,2658,2021-09-27 17:22:05.195,-0.1943810780843099,
643,643,2662,2021-09-27 17:22:05.199,-0.1682345072428385,
644,644,2666,2021-09-27 17:22:05.203,-0.2350203196207682,
645,645,2670,2021-09-27 17:22:05.207,-0.222171147664388,
646,646,2674,2021-09-27 17:22:05.211,-0.2408472696940104,
647,647,2678,2021-09-27 17:22:05.215,-0.2790959676106771,
648,648,2682,2021-09-27 17:22:05.219,-0.2375602722167969,
649,649,2686,2021-09-27 17:22:05.223,-0.2683385213216146,
650,650,2690,2021-09-27 17:22:05.227,-0.2247111002604166,
651,651,2694,2021-09-27 17:22:05.231,-0.222320556640625,
652,652,2698,2021-09-27 17:22:05.235,-0.2472718556722005,
653,653,2702,2021-09-27 17:22:05.239,-0.2147006988525391,
654,654,2706,2021-09-27 17:22:05.243,-0.2605692545572917,
655,655,2710,2021-09-27 17:22:05.247,-0.2259063720703125,
656,656,2714,2021-09-27 17:22:05.251,-0.2236652374267578,
657,657,2718,2021-09-27 17:22:05.255,-0.2420425415039062,
658,658,2722,2021-09-27 17:22:05.259,-0.1999092102050781,
659,659,2726,2021-09-27 17:22:05.263,-0.2420425415039062,
660,660,2730,2021-09-27 17:22:05.267,-0.2018515268961588,
661,661,2734,2021-09-27 17:22:05.271,-0.1961739857991536,
662,662,2738,2021-09-27 17:22:05.275,-0.2205276489257812,
663,663,2742,2021-09-27 17:22:05.279,-0.2039432525634766,
664,664,2746,2021-09-27 17:22:05.283,-0.2699820200602214,
665,665,2750,2021-09-27 17:22:05.287,-0.2454789479573568,
666,666,2754,2021-09-27 17:22:05.291,-0.2472718556722005,
667,667,2758,2021-09-27 17:22:05.295,-0.2646032969156901,
668,668,2762,2021-09-27 17:22:05.299,-0.2061843872070312,
669,669,2766,2021-09-27 17:22:05.303,-0.2263545989990234,
670,670,2770,2021-09-27 17:22:05.307,-0.1881059010823567,
671,671,2774,2021-09-27 17:22:05.311,-0.1960245768229166,
672,672,2778,2021-09-27 17:22:05.315,-0.2167924245198568,
673,673,2782,2021-09-27 17:22:05.319,-0.1840718587239583,
674,674,2786,2021-09-27 17:22:05.323,-0.2408472696940104,
675,675,2790,2021-09-27 17:22:05.327,-0.2378590901692708,
676,676,2794,2021-09-27 17:22:05.331,-0.2539952596028646,
677,677,2798,2021-09-27 17:22:05.335,-0.2581787109375,
678,678,2802,2021-09-27 17:22:05.339,-0.1928869883219401,
679,679,2806,2021-09-27 17:22:05.343,-0.2401002248128255,
680,680,2810,2021-09-27 17:22:05.347,-0.2377096811930338,
681,681,2814,2021-09-27 17:22:05.351,-0.2571328481038412,
682,682,2818,2021-09-27 17:22:05.355,-0.2674420674641927,
683,683,2822,2021-09-27 17:22:05.359,-0.2157465616861979,
684,684,2826,2021-09-27 17:22:05.363,-0.2554893493652344,
685,685,2830,2021-09-27 17:22:05.367,-0.2227687835693359,
686,686,2834,2021-09-27 17:22:05.371,-0.2332274119059245,
687,687,2838,2021-09-27 17:22:05.375,-0.2499612172444661,
688,688,2842,2021-09-27 17:22:05.379,-0.2033456166585286,
689,689,2846,2021-09-27 17:22:05.383,-0.2463754018147786,
690,690,2850,2021-09-27 17:22:05.387,-0.2108160654703776,
691,691,2854,2021-09-27 17:22:05.391,-0.2099196116129557,
692,692,2858,2021-09-27 17:22:05.395,-0.2242628733317057,
693,693,2862,2021-09-27 17:22:05.399,-0.1656945546468099,
694,694,2866,2021-09-27 17:22:05.403,-0.2064832051595052,
695,695,2870,2021-09-27 17:22:05.407,-0.1786931355794271,
696,696,2874,2021-09-27 17:22:05.411,-0.1831754048665364,
697,697,2878,2021-09-27 17:22:05.415,-0.2008056640625,
698,698,2882,2021-09-27 17:22:05.419,-0.1713720957438151,
699,699,2886,2021-09-27 17:22:05.423,-0.2200794219970703,
700,700,2890,2021-09-27 17:22:05.427,-0.1867612202962239,
701,701,2894,2021-09-27 17:22:05.431,-0.1970704396565755,
702,702,2898,2021-09-27 17:22:05.435,-0.2336756388346354,
703,703,2902,2021-09-27 17:22:05.439,-0.2126089731852213,
704,704,2906,2021-09-27 17:22:05.443,-0.2563858032226563,
705,705,2910,2021-09-27 17:22:05.447,-0.2129077911376953,
706,706,2914,2021-09-27 17:22:05.451,-0.2063337961832682,
707,707,2918,2021-09-27 17:22:05.455,-0.2282969156901041,
708,708,2922,2021-09-27 17:22:05.459,-0.1987139383951823,
709,709,2926,2021-09-27 17:22:05.463,-0.2559375762939453,
710,710,2930,2021-09-27 17:22:05.467,-0.2353191375732422,
711,711,2934,2021-09-27 17:22:05.471,-0.2353191375732422,
712,712,2938,2021-09-27 17:22:05.475,-0.2411460876464844,
713,713,2942,2021-09-27 17:22:05.479,-0.1812330881754557,
714,714,2946,2021-09-27 17:22:05.483,-0.2253087361653646,
715,715,2950,2021-09-27 17:22:05.487,-0.2169418334960937,
716,716,2954,2021-09-27 17:22:05.491,-0.2459271748860677,
717,717,2958,2021-09-27 17:22:05.495,-0.2704302469889323,
718,718,2962,2021-09-27 17:22:05.499,-0.2197806040445963,
719,719,2966,2021-09-27 17:22:05.503,-0.2474212646484375,
720,720,2970,2021-09-27 17:22:05.507,-0.2045408884684245,
721,721,2974,2021-09-27 17:22:05.511,-0.2093219757080078,
722,722,2978,2021-09-27 17:22:05.515,-0.2415943145751953,
723,723,2982,2021-09-27 17:22:05.519,-0.2130572001139323,
724,724,2986,2021-09-27 17:22:05.523,-0.2616151173909505,
725,725,2990,2021-09-27 17:22:05.527,-0.2356179555257161,
726,726,2994,2021-09-27 17:22:05.531,-0.2360661824544271,
727,727,2998,2021-09-27 17:22:05.535,-0.2380084991455078,
728,728,3002,2021-09-27 17:22:05.539,-0.1828765869140625,
729,729,3006,2021-09-27 17:22:05.543,-0.2191829681396484,
730,730,3010,2021-09-27 17:22:05.547,-0.1800378163655599,
731,731,3014,2021-09-27 17:22:05.551,-0.1766014099121094,
732,732,3018,2021-09-27 17:22:05.555,-0.2030467987060547,
733,733,3022,2021-09-27 17:22:05.559,-0.1769002278645833,
734,734,3026,2021-09-27 17:22:05.563,-0.2359167734781901,
735,735,3030,2021-09-27 17:22:05.567,-0.2123101552327474,
736,736,3034,2021-09-27 17:22:05.571,-0.2181371053059896,
737,737,3038,2021-09-27 17:22:05.575,-0.2442836761474609,
738,738,3042,2021-09-27 17:22:05.579,-0.215447743733724,
739,739,3046,2021-09-27 17:22:05.583,-0.2634080251057943,
740,740,3050,2021-09-27 17:22:05.587,-0.2206770579020182,
741,741,3054,2021-09-27 17:22:05.591,-0.2003574371337891,
742,742,3058,2021-09-27 17:22:05.595,-0.2066326141357422,
743,743,3062,2021-09-27 17:22:05.599,-0.1713720957438151,
744,744,3066,2021-09-27 17:22:05.603,-0.2266534169514974,
745,745,3070,2021-09-27 17:22:05.607,-0.1963233947753906,
746,746,3074,2021-09-27 17:22:05.611,-0.208276112874349,
747,747,3078,2021-09-27 17:22:05.615,-0.236663818359375,
748,748,3082,2021-09-27 17:22:05.619,-0.2015527089436849,
749,749,3086,2021-09-27 17:22:05.623,-0.2448813120524088,
750,750,3090,2021-09-27 17:22:05.627,-0.2042420705159505,
751,751,3094,2021-09-27 17:22:05.631,-0.2084255218505859,
752,752,3098,2021-09-27 17:22:05.635,-0.2402496337890625,
753,753,3102,2021-09-27 17:22:05.639,-0.2084255218505859,
754,754,3106,2021-09-27 17:22:05.643,-0.2520529429117839,
755,755,3110,2021-09-27 17:22:05.647,-0.2157465616861979,
756,756,3114,2021-09-27 17:22:05.651,-0.2169418334960937,
757,757,3118,2021-09-27 17:22:05.655,-0.2257569630940755,
758,758,3122,2021-09-27 17:22:05.659,-0.1900482177734375,
759,759,3126,2021-09-27 17:22:05.663,-0.2412954966227213,
760,760,3130,2021-09-27 17:22:05.667,-0.2069314320882161,
761,761,3134,2021-09-27 17:22:05.671,-0.215447743733724,
762,762,3138,2021-09-27 17:22:05.675,-0.2504094441731771,
763,763,3142,2021-09-27 17:22:05.679,-0.2160453796386719,
764,764,3146,2021-09-27 17:22:05.683,-0.2523517608642578,
765,765,3150,2021-09-27 17:22:05.687,-0.2072302500406901,
766,766,3154,2021-09-27 17:22:05.691,-0.207977294921875,
767,767,3158,2021-09-27 17:22:05.695,-0.2389049530029297,
768,768,3162,2021-09-27 17:22:05.699,-0.2067820231119791,
769,769,3166,2021-09-27 17:22:05.703,-0.2427895863850911,
770,770,3170,2021-09-27 17:22:05.707,-0.1972198486328125,
771,771,3174,2021-09-27 17:22:05.711,-0.186163584391276,
772,772,3178,2021-09-27 17:22:05.715,-0.1954269409179687,
773,773,3182,2021-09-27 17:22:05.719,-0.1606146494547526,
774,774,3186,2021-09-27 17:22:05.723,-0.2405484517415365,
775,775,3190,2021-09-27 17:22:05.727,-0.2447319030761719,
776,776,3194,2021-09-27 17:22:05.731,-0.2625115712483724,
777,777,3198,2021-09-27 17:22:05.735,-0.2681891123453776,
778,778,3202,2021-09-27 17:22:05.739,-0.2057361602783203,
779,779,3206,2021-09-27 17:22:05.743,-0.2560869852701823,
780,780,3210,2021-09-27 17:22:05.747,-0.2356179555257161,
781,781,3214,2021-09-27 17:22:05.751,-0.2442836761474609,
782,782,3218,2021-09-27 17:22:05.755,-0.2447319030761719,
783,783,3222,2021-09-27 17:22:05.759,-0.1846694946289062,
784,784,3226,2021-09-27 17:22:05.763,-0.2402496337890625,
785,785,3230,2021-09-27 17:22:05.767,-0.2257569630940755,
786,786,3234,2021-09-27 17:22:05.771,-0.2409966786702474,
787,787,3238,2021-09-27 17:22:05.775,-0.2704302469889323,
788,788,3242,2021-09-27 17:22:05.779,-0.2120113372802734,
789,789,3246,2021-09-27 17:22:05.783,-0.2276992797851562,
790,790,3250,2021-09-27 17:22:05.787,-0.1878070831298828,
791,791,3254,2021-09-27 17:22:05.791,-0.2235158284505208,
792,792,3258,2021-09-27 17:22:05.795,-0.2737172444661458,
793,793,3262,2021-09-27 17:22:05.799,-0.2336756388346354,
794,794,3266,2021-09-27 17:22:05.803,-0.2545928955078125,
795,795,3270,2021-09-27 17:22:05.807,-0.1970704396565755,
796,796,3274,2021-09-27 17:22:05.811,-0.1842212677001953,
797,797,3278,2021-09-27 17:22:05.815,-0.1881059010823567,
798,798,3282,2021-09-27 17:22:05.819,-0.1407432556152344,
799,799,3286,2021-09-27 17:22:05.823,-0.2118619283040365,
800,800,3290,2021-09-27 17:22:05.827,-0.2091725667317708,
801,801,3294,2021-09-27 17:22:05.831,-0.2321815490722656,
802,802,3298,2021-09-27 17:22:05.835,-0.2460765838623047,
803,803,3302,2021-09-27 17:22:05.839,-0.1515007019042969,
804,804,3306,2021-09-27 17:22:05.843,-0.0917371114095052,
805,805,3310,2021-09-27 17:22:05.847,0.0718657175699869,
806,806,3314,2021-09-27 17:22:05.851,0.1952775319417318,
807,807,3318,2021-09-27 17:22:05.855,0.2770042419433594,
808,808,3322,2021-09-27 17:22:05.859,0.293887456258138,
809,809,3326,2021-09-27 17:22:05.863,-0.028387705485026,
810,810,3330,2021-09-27 17:22:05.867,-0.4358259836832683,
811,811,3334,2021-09-27 17:22:05.871,-0.8710543314615886,
812,812,3338,2021-09-27 17:22:05.875,-1.1384963989257817,
813,813,3342,2021-09-27 17:22:05.879,-1.0448169708251955,
814,814,3346,2021-09-27 17:22:05.883,-0.818014144897461,
815,815,3350,2021-09-27 17:22:05.887,-0.4870732625325521,
816,816,3354,2021-09-27 17:22:05.891,-0.2743148803710938,
817,817,3358,2021-09-27 17:22:05.895,-0.1815319061279297,
818,818,3362,2021-09-27 17:22:05.899,-0.0980122884114583,
819,819,3366,2021-09-27 17:22:05.903,-0.1208718617757161,
820,820,3370,2021-09-27 17:22:05.907,-0.0552813212076822,
821,821,3374,2021-09-27 17:22:05.911,-0.0449721018473307,
822,822,3378,2021-09-27 17:22:05.915,-0.0618553161621093,
823,823,3382,2021-09-27 17:22:05.919,-0.0245030721028645,
824,824,3386,2021-09-27 17:22:05.923,-0.0702222188313802,
825,825,3390,2021-09-27 17:22:05.927,-0.0443744659423828,
826,826,3394,2021-09-27 17:22:05.931,-0.0826231638590494,
827,827,3398,2021-09-27 17:22:05.935,-0.1437314351399739,
828,828,3402,2021-09-27 17:22:05.939,-0.1328245798746745,
829,829,3406,2021-09-27 17:22:05.943,-0.1985645294189453,
830,830,3410,2021-09-27 17:22:05.947,-0.1658439636230469,
831,831,3414,2021-09-27 17:22:05.951,-0.1349163055419922,
832,832,3418,2021-09-27 17:22:05.955,-0.1910940806070963,
833,833,3422,2021-09-27 17:22:05.959,-0.1873588562011719,
834,834,3426,2021-09-27 17:22:05.963,-0.2616151173909505,
835,835,3430,2021-09-27 17:22:05.967,-0.272820790608724,
836,836,3434,2021-09-27 17:22:05.971,-0.2406978607177734,
837,837,3438,2021-09-27 17:22:05.975,-0.2674420674641927,
838,838,3442,2021-09-27 17:22:05.979,-0.2199300130208333,
839,839,3446,2021-09-27 17:22:05.983,-0.2622127532958985,
840,840,3450,2021-09-27 17:22:05.987,-0.2532482147216797,
841,841,3454,2021-09-27 17:22:05.991,-0.2126089731852213,
842,842,3458,2021-09-27 17:22:05.995,-0.251007080078125,
843,843,3462,2021-09-27 17:22:05.999,-0.2211252848307291,
844,844,3466,2021-09-27 17:22:06.003,-0.2698326110839844,
845,845,3470,2021-09-27 17:22:06.007,-0.2675914764404297,
846,846,3474,2021-09-27 17:22:06.011,-0.2132066090901693,
847,847,3478,2021-09-27 17:22:06.015,-0.236514409383138,
848,848,3482,2021-09-27 17:22:06.019,-0.2066326141357422,
849,849,3486,2021-09-27 17:22:06.023,-0.2589257558186849,
850,850,3490,2021-09-27 17:22:06.027,-0.2401002248128255,
851,851,3494,2021-09-27 17:22:06.031,-0.1969210306803385,
852,852,3498,2021-09-27 17:22:06.035,-0.2330780029296875,
853,853,3502,2021-09-27 17:22:06.039,-0.1894505818684896,
854,854,3506,2021-09-27 17:22:06.043,-0.2357673645019531,
855,855,3510,2021-09-27 17:22:06.047,-0.2233664194742838,
856,856,3514,2021-09-27 17:22:06.051,-0.1816813151041666,
857,857,3518,2021-09-27 17:22:06.055,-0.2157465616861979,
858,858,3522,2021-09-27 17:22:06.059,-0.1745096842447916,
859,859,3526,2021-09-27 17:22:06.063,-0.2167924245198568,
860,860,3530,2021-09-27 17:22:06.067,-0.2124595642089844,
861,861,3534,2021-09-27 17:22:06.071,-0.1946798960367838,
862,862,3538,2021-09-27 17:22:06.075,-0.2599716186523438,
863,863,3542,2021-09-27 17:22:06.079,-0.2384567260742187,
864,864,3546,2021-09-27 17:22:06.083,-0.2816359202067057,
865,865,3550,2021-09-27 17:22:06.087,-0.257879892985026,
866,866,3554,2021-09-27 17:22:06.091,-0.2058855692545573,
867,867,3558,2021-09-27 17:22:06.095,-0.2339744567871094,
868,868,3562,2021-09-27 17:22:06.099,-0.1852671305338541,
869,869,3566,2021-09-27 17:22:06.103,-0.2188841501871745,
870,870,3570,2021-09-27 17:22:06.107,-0.2136548360188802,
871,871,3574,2021-09-27 17:22:06.111,-0.1848189036051432,
872,872,3578,2021-09-27 17:22:06.115,-0.2460765838623047,
873,873,3582,2021-09-27 17:22:06.119,-0.2111148834228516,
874,874,3586,2021-09-27 17:22:06.123,-0.2377096811930338,
875,875,3590,2021-09-27 17:22:06.127,-0.2305380503336588,
876,876,3594,2021-09-27 17:22:06.131,-0.2145512898763021,
877,877,3598,2021-09-27 17:22:06.135,-0.2646032969156901,
878,878,3602,2021-09-27 17:22:06.139,-0.214850107828776,
879,879,3606,2021-09-27 17:22:06.143,-0.229342778523763,
880,880,3610,2021-09-27 17:22:06.147,-0.2028973897298177,
881,881,3614,2021-09-27 17:22:06.151,-0.1828765869140625,
882,882,3618,2021-09-27 17:22:06.155,-0.2274004618326823,
883,883,3622,2021-09-27 17:22:06.159,-0.1827271779378255,
884,884,3626,2021-09-27 17:22:06.163,-0.2314345041910807,
885,885,3630,2021-09-27 17:22:06.167,-0.2517541249593099,
886,886,3634,2021-09-27 17:22:06.171,-0.2371120452880859,
887,887,3638,2021-09-27 17:22:06.175,-0.2501106262207032,
888,888,3642,2021-09-27 17:22:06.179,-0.1704756418863932,
889,889,3646,2021-09-27 17:22:06.183,-0.1982657114664713,
890,890,3650,2021-09-27 17:22:06.187,-0.2109654744466146,
891,891,3654,2021-09-27 17:22:06.191,-0.2117125193277995,
892,892,3658,2021-09-27 17:22:06.195,-0.2593739827473958,
893,893,3662,2021-09-27 17:22:06.199,-0.2136548360188802,
894,894,3666,2021-09-27 17:22:06.203,-0.2496623992919922,
895,895,3670,2021-09-27 17:22:06.207,-0.2347215016682943,
896,896,3674,2021-09-27 17:22:06.211,-0.1893011728922526,
897,897,3678,2021-09-27 17:22:06.215,-0.2170912424723307,
898,898,3682,2021-09-27 17:22:06.219,-0.1845200856526692,
899,899,3686,2021-09-27 17:22:06.223,-0.2420425415039062,
900,900,3690,2021-09-27 17:22:06.227,-0.2453295389811198,
901,901,3694,2021-09-27 17:22:06.231,-0.2138042449951172,
902,902,3698,2021-09-27 17:22:06.235,-0.243536631266276,
903,903,3702,2021-09-27 17:22:06.239,-0.1951281229654948,
904,904,3706,2021-09-27 17:22:06.243,-0.2247111002604166,
905,905,3710,2021-09-27 17:22:06.247,-0.2205276489257812,
906,906,3714,2021-09-27 17:22:06.251,-0.2202288309733073,
907,907,3718,2021-09-27 17:22:06.255,-0.279693603515625,
908,908,3722,2021-09-27 17:22:06.259,-0.2302392323811849,
909,909,3726,2021-09-27 17:22:06.263,-0.2401002248128255,
910,910,3730,2021-09-27 17:22:06.267,-0.2133560180664062,
911,911,3734,2021-09-27 17:22:06.271,-0.1757049560546875,
912,912,3738,2021-09-27 17:22:06.275,-0.200656255086263,
913,913,3742,2021-09-27 17:22:06.279,-0.150753657023112,
914,914,3746,2021-09-27 17:22:06.283,-0.2218723297119141,
915,915,3750,2021-09-27 17:22:06.287,-0.2678902943929037,
916,916,3754,2021-09-27 17:22:06.291,-0.2451801300048828,
917,917,3758,2021-09-27 17:22:06.295,-0.2383073170979818,
918,918,3762,2021-09-27 17:22:06.299,-0.1543394724527995,
919,919,3766,2021-09-27 17:22:06.303,-0.1776472727457682,
920,920,3770,2021-09-27 17:22:06.307,-0.1916917165120443,
921,921,3774,2021-09-27 17:22:06.311,-0.2046902974446615,
922,922,3778,2021-09-27 17:22:06.315,-0.2690855662027995,
923,923,3782,2021-09-27 17:22:06.319,-0.2318827311197916,
924,924,3786,2021-09-27 17:22:06.323,-0.2759583791097005,
925,925,3790,2021-09-27 17:22:06.327,-0.2701314290364583,
926,926,3794,2021-09-27 17:22:06.331,-0.2281475067138672,
927,927,3798,2021-09-27 17:22:06.335,-0.2445824940999349,
928,928,3802,2021-09-27 17:22:06.339,-0.1694297790527344,
929,929,3806,2021-09-27 17:22:06.343,-0.1925881703694661,
930,930,3810,2021-09-27 17:22:06.347,-0.1921399434407552,
931,931,3814,2021-09-27 17:22:06.351,-0.1878070831298828,
932,932,3818,2021-09-27 17:22:06.355,-0.2359167734781901,
933,933,3822,2021-09-27 17:22:06.359,-0.1736132303873698,
934,934,3826,2021-09-27 17:22:06.363,-0.2063337961832682,
935,935,3830,2021-09-27 17:22:06.367,-0.2115631103515625,
936,936,3834,2021-09-27 17:22:06.371,-0.2139536539713541,
937,937,3838,2021-09-27 17:22:06.375,-0.2822335561116537,
938,938,3842,2021-09-27 17:22:06.379,-0.2303886413574219,
939,939,3846,2021-09-27 17:22:06.383,-0.2335262298583984,
940,940,3850,2021-09-27 17:22:06.387,-0.2182865142822266,
941,941,3854,2021-09-27 17:22:06.391,-0.2022997538248698,
942,942,3858,2021-09-27 17:22:06.395,-0.2466742197672526,
943,943,3862,2021-09-27 17:22:06.399,-0.1846694946289062,
944,944,3866,2021-09-27 17:22:06.403,-0.208276112874349,
945,945,3870,2021-09-27 17:22:06.407,-0.2100690205891927,
946,946,3874,2021-09-27 17:22:06.411,-0.207827885945638,
947,947,3878,2021-09-27 17:22:06.415,-0.2620633443196615,
948,948,3882,2021-09-27 17:22:06.419,-0.2121607462565104,
949,949,3886,2021-09-27 17:22:06.423,-0.2399508158365885,
950,950,3890,2021-09-27 17:22:06.427,-0.2203782399495443,
951,951,3894,2021-09-27 17:22:06.431,-0.1913928985595703,
952,952,3898,2021-09-27 17:22:06.435,-0.2444330851236979,
953,953,3902,2021-09-27 17:22:06.439,-0.1963233947753906,
954,954,3906,2021-09-27 17:22:06.443,-0.2253087361653646,
955,955,3910,2021-09-27 17:22:06.447,-0.2130572001139323,
956,956,3914,2021-09-27 17:22:06.451,-0.193335215250651,
957,957,3918,2021-09-27 17:22:06.455,-0.243984858194987,
958,958,3922,2021-09-27 17:22:06.459,-0.1997598012288411,
959,959,3926,2021-09-27 17:22:06.463,-0.2312850952148437,
960,960,3930,2021-09-27 17:22:06.467,-0.2257569630940755,
961,961,3934,2021-09-27 17:22:06.471,-0.2084255218505859,
962,962,3938,2021-09-27 17:22:06.475,-0.2421919504801432,
963,963,3942,2021-09-27 17:22:06.479,-0.1743602752685547,
964,964,3946,2021-09-27 17:22:06.483,-0.2193323771158854,
965,965,3950,2021-09-27 17:22:06.487,-0.2398014068603516,
966,966,3954,2021-09-27 17:22:06.491,-0.2227687835693359,
967,967,3958,2021-09-27 17:22:06.495,-0.2587763468424479,
968,968,3962,2021-09-27 17:22:06.499,-0.2043914794921875,
969,969,3966,2021-09-27 17:22:06.503,-0.2345720926920573,
970,970,3970,2021-09-27 17:22:06.507,-0.2145512898763021,
971,971,3974,2021-09-27 17:22:06.511,-0.179440180460612,
972,972,3978,2021-09-27 17:22:06.515,-0.2206770579020182,
973,973,3982,2021-09-27 17:22:06.519,-0.1888529459635416,
974,974,3986,2021-09-27 17:22:06.523,-0.2421919504801432,
975,975,3990,2021-09-27 17:22:06.527,-0.2338250478108724,
976,976,3994,2021-09-27 17:22:06.531,-0.2045408884684245,
977,977,3998,2021-09-27 17:22:06.535,-0.2381579081217448,
978,978,4002,2021-09-27 17:22:06.539,-0.1924387613932291,
979,979,4006,2021-09-27 17:22:06.543,-0.2396519978841146,
980,980,4010,2021-09-27 17:22:06.547,-0.24383544921875,
981,981,4014,2021-09-27 17:22:06.551,-0.2250099182128906,
982,982,4018,2021-09-27 17:22:06.555,-0.2620633443196615,
983,983,4022,2021-09-27 17:22:06.559,-0.2232170104980469,
984,984,4026,2021-09-27 17:22:06.563,-0.2704302469889323,
985,985,4030,2021-09-27 17:22:06.567,-0.2474212646484375,
986,986,4034,2021-09-27 17:22:06.571,-0.2066326141357422,
987,987,4038,2021-09-27 17:22:06.575,-0.2417437235514323,
988,988,4042,2021-09-27 17:22:06.579,-0.193335215250651,
989,989,4046,2021-09-27 17:22:06.583,-0.2166430155436198,
990,990,4050,2021-09-27 17:22:06.587,-0.2030467987060547,
991,991,4054,2021-09-27 17:22:06.591,-0.1885541280110677,
992,992,4058,2021-09-27 17:22:06.595,-0.2390543619791666,
993,993,4062,2021-09-27 17:22:06.599,-0.1955763498942057,
994,994,4066,2021-09-27 17:22:06.603,-0.243686040242513,
995,995,4070,2021-09-27 17:22:06.607,-0.2423413594563802,
996,996,4074,2021-09-27 17:22:06.611,-0.208276112874349,
997,997,4078,2021-09-27 17:22:06.615,-0.2517541249593099,
998,998,4082,2021-09-27 17:22:06.619,-0.2124595642089844,
999,999,4086,2021-09-27 17:22:06.623,-0.2442836761474609,
1000,1000,4090,2021-09-27 17:22:06.627,-0.2242628733317057,
1001,1001,4094,2021-09-27 17:22:06.631,-0.18646240234375,
1002,1002,4098,2021-09-27 17:22:06.635,-0.2163441975911458,
1003,1003,4102,2021-09-27 17:22:06.639,-0.1637522379557291,
1004,1004,4106,2021-09-27 17:22:06.643,-0.236962636311849,
1005,1005,4110,2021-09-27 17:22:06.647,-0.2744642893473307,
1006,1006,4114,2021-09-27 17:22:06.651,-0.2285957336425781,
1007,1007,4118,2021-09-27 17:22:06.655,-0.1996103922526041,
1008,1008,4122,2021-09-27 17:22:06.659,-0.0578212738037109,
1009,1009,4126,2021-09-27 17:22:06.663,0.0312264760335286,
1010,1010,4130,2021-09-27 17:22:06.667,0.1644992828369141,
1011,1011,4134,2021-09-27 17:22:06.671,0.2991167704264323,
1012,1012,4138,2021-09-27 17:22:06.675,0.2629597981770833,
1013,1013,4142,2021-09-27 17:22:06.679,0.0726127624511718,
1014,1014,4146,2021-09-27 17:22:06.683,-0.3814411163330078,
1015,1015,4150,2021-09-27 17:22:06.687,-0.7667668660481772,
1016,1016,4154,2021-09-27 17:22:06.691,-0.9964084625244142,
1017,1017,4158,2021-09-27 17:22:06.695,-1.0475063323974612,
1018,1018,4162,2021-09-27 17:22:06.699,-0.8124860127766929,
1019,1019,4166,2021-09-27 17:22:06.703,-0.5862808227539064,
1020,1020,4170,2021-09-27 17:22:06.707,-0.3431924184163412,
1021,1021,4174,2021-09-27 17:22:06.711,-0.165096918741862,
1022,1022,4178,2021-09-27 17:22:06.715,-0.1258023579915364,
1023,1023,4182,2021-09-27 17:22:06.719,-0.0413862864176432,
1024,1024,4186,2021-09-27 17:22:06.723,-0.0802326202392578,
1025,1025,4190,2021-09-27 17:22:06.727,-0.092633565266927,
1026,1026,4194,2021-09-27 17:22:06.731,-0.0651423136393229,
1027,1027,4198,2021-09-27 17:22:06.735,-0.0983111063639323,
1028,1028,4202,2021-09-27 17:22:06.739,-0.0491555531819661,
1029,1029,4206,2021-09-27 17:22:06.743,-0.1023451487223307,
1030,1030,4210,2021-09-27 17:22:06.747,-0.1186307271321614,
1031,1031,4214,2021-09-27 17:22:06.751,-0.1186307271321614,
1032,1032,4218,2021-09-27 17:22:06.755,-0.1854165395100911,
1033,1033,4222,2021-09-27 17:22:06.759,-0.1559829711914062,
1034,1034,4226,2021-09-27 17:22:06.763,-0.2063337961832682,
1035,1035,4230,2021-09-27 17:22:06.767,-0.1984151204427083,
1036,1036,4234,2021-09-27 17:22:06.771,-0.1898988087972005,
1037,1037,4238,2021-09-27 17:22:06.775,-0.2465248107910156,
1038,1038,4242,2021-09-27 17:22:06.779,-0.1919905344645182,
1039,1039,4246,2021-09-27 17:22:06.783,-0.2127583821614583,
1040,1040,4250,2021-09-27 17:22:06.787,-0.2048397064208984,
1041,1041,4254,2021-09-27 17:22:06.791,-0.1876576741536458,
1042,1042,4258,2021-09-27 17:22:06.795,-0.2299404144287109,
1043,1043,4262,2021-09-27 17:22:06.799,-0.1827271779378255,
1044,1044,4266,2021-09-27 17:22:06.803,-0.2290439605712891,
1045,1045,4270,2021-09-27 17:22:06.807,-0.2281475067138672,
1046,1046,4274,2021-09-27 17:22:06.811,-0.2043914794921875,
1047,1047,4278,2021-09-27 17:22:06.815,-0.251007080078125,
1048,1048,4282,2021-09-27 17:22:06.819,-0.2070808410644531,
1049,1049,4286,2021-09-27 17:22:06.823,-0.2383073170979818,
1050,1050,4290,2021-09-27 17:22:06.827,-0.2294921875,
1051,1051,4294,2021-09-27 17:22:06.831,-0.2209758758544922,
1052,1052,4298,2021-09-27 17:22:06.835,-0.2840264638264974,
1053,1053,4302,2021-09-27 17:22:06.839,-0.2589257558186849,
1054,1054,4306,2021-09-27 17:22:06.843,-0.2925427754720052,
1055,1055,4310,2021-09-27 17:22:06.847,-0.2575810750325521,
1056,1056,4314,2021-09-27 17:22:06.851,-0.2179876963297526,
1057,1057,4318,2021-09-27 17:22:06.855,-0.2486165364583333,
1058,1058,4322,2021-09-27 17:22:06.859,-0.1907952626546224,
1059,1059,4326,2021-09-27 17:22:06.863,-0.2136548360188802,
1060,1060,4330,2021-09-27 17:22:06.867,-0.2037938435872396,
1061,1061,4334,2021-09-27 17:22:06.871,-0.1981163024902344,
1062,1062,4338,2021-09-27 17:22:06.875,-0.2478694915771484,
1063,1063,4342,2021-09-27 17:22:06.879,-0.1884047190348307,
1064,1064,4346,2021-09-27 17:22:06.883,-0.2135054270426432,
1065,1065,4350,2021-09-27 17:22:06.887,-0.2114137013753255,
1066,1066,4354,2021-09-27 17:22:06.891,-0.1964728037516276,
1067,1067,4358,2021-09-27 17:22:06.895,-0.2536964416503907,
1068,1068,4362,2021-09-27 17:22:06.899,-0.2308368682861328,
1069,1069,4366,2021-09-27 17:22:06.903,-0.2790959676106771,
1070,1070,4370,2021-09-27 17:22:06.907,-0.2605692545572917,
1071,1071,4374,2021-09-27 17:22:06.911,-0.2229181925455729,
1072,1072,4378,2021-09-27 17:22:06.915,-0.2490647633870443,
1073,1073,4382,2021-09-27 17:22:06.919,-0.2025985717773437,
1074,1074,4386,2021-09-27 17:22:06.923,-0.2486165364583333,
1075,1075,4390,2021-09-27 17:22:06.927,-0.2381579081217448,
1076,1076,4394,2021-09-27 17:22:06.931,-0.1982657114664713,
1077,1077,4398,2021-09-27 17:22:06.935,-0.2318827311197916,
1078,1078,4402,2021-09-27 17:22:06.939,-0.1975186665852865,
1079,1079,4406,2021-09-27 17:22:06.943,-0.2519035339355469,
1080,1080,4410,2021-09-27 17:22:06.947,-0.2444330851236979,
1081,1081,4414,2021-09-27 17:22:06.951,-0.1881059010823567,
1082,1082,4418,2021-09-27 17:22:06.955,-0.2453295389811198,
1083,1083,4422,2021-09-27 17:22:06.959,-0.2233664194742838,
1084,1084,4426,2021-09-27 17:22:06.963,-0.2383073170979818,
1085,1085,4430,2021-09-27 17:22:06.967,-0.2547423044840495,
1086,1086,4434,2021-09-27 17:22:06.971,-0.1973692576090495,
1087,1087,4438,2021-09-27 17:22:06.975,-0.2378590901692708,
1088,1088,4442,2021-09-27 17:22:06.979,-0.2060349782307943,
1089,1089,4446,2021-09-27 17:22:06.983,-0.2090231577555338,
1090,1090,4450,2021-09-27 17:22:06.987,-0.2287451426188151,
1091,1091,4454,2021-09-27 17:22:06.991,-0.193634033203125,
1092,1092,4458,2021-09-27 17:22:06.995,-0.2393531799316406,
1093,1093,4462,2021-09-27 17:22:06.999,-0.1885541280110677,
1094,1094,4466,2021-09-27 17:22:07.003,-0.1751073201497396,
1095,1095,4470,2021-09-27 17:22:07.007,-0.1975186665852865,
1096,1096,4474,2021-09-27 17:22:07.011,-0.164798100789388,
1097,1097,4478,2021-09-27 17:22:07.015,-0.2166430155436198,
1098,1098,4482,2021-09-27 17:22:07.019,-0.1834742228190104,
1099,1099,4486,2021-09-27 17:22:07.023,-0.1973692576090495,
1100,1100,4490,2021-09-27 17:22:07.027,-0.2321815490722656,
1101,1101,4494,2021-09-27 17:22:07.031,-0.2045408884684245,
1102,1102,4498,2021-09-27 17:22:07.035,-0.2529493967692057,
1103,1103,4502,2021-09-27 17:22:07.039,-0.2043914794921875,
1104,1104,4506,2021-09-27 17:22:07.043,-0.2094713846842448,
1105,1105,4510,2021-09-27 17:22:07.047,-0.2351697285970052,
1106,1106,4514,2021-09-27 17:22:07.051,-0.1878070831298828,
1107,1107,4518,2021-09-27 17:22:07.055,-0.2299404144287109,
1108,1108,4522,2021-09-27 17:22:07.059,-0.2031962076822916,
1109,1109,4526,2021-09-27 17:22:07.063,-0.2203782399495443,
1110,1110,4530,2021-09-27 17:22:07.067,-0.2519035339355469,
1111,1111,4534,2021-09-27 17:22:07.071,-0.2158959706624349,
1112,1112,4538,2021-09-27 17:22:07.075,-0.2623621622721354,
1113,1113,4542,2021-09-27 17:22:07.079,-0.2347215016682943,
1114,1114,4546,2021-09-27 17:22:07.083,-0.2336756388346354,
1115,1115,4550,2021-09-27 17:22:07.087,-0.2381579081217448,
1116,1116,4554,2021-09-27 17:22:07.091,-0.1839224497477213,
1117,1117,4558,2021-09-27 17:22:07.095,-0.2244122823079427,
1118,1118,4562,2021-09-27 17:22:07.099,-0.200955073038737,
1119,1119,4566,2021-09-27 17:22:07.103,-0.2276992797851562,
1120,1120,4570,2021-09-27 17:22:07.107,-0.2560869852701823,
1121,1121,4574,2021-09-27 17:22:07.111,-0.2197806040445963,
1122,1122,4578,2021-09-27 17:22:07.115,-0.2616151173909505,
1123,1123,4582,2021-09-27 17:22:07.119,-0.207827885945638,
1124,1124,4586,2021-09-27 17:22:07.123,-0.1988633473714193,
1125,1125,4590,2021-09-27 17:22:07.127,-0.2188841501871745,
1126,1126,4594,2021-09-27 17:22:07.131,-0.179290771484375,
1127,1127,4598,2021-09-27 17:22:07.135,-0.2232170104980469,
1128,1128,4602,2021-09-27 17:22:07.139,-0.1951281229654948,
1129,1129,4606,2021-09-27 17:22:07.143,-0.2339744567871094,
1130,1130,4610,2021-09-27 17:22:07.147,-0.2714761098225912,
1131,1131,4614,2021-09-27 17:22:07.151,-0.2126089731852213,
1132,1132,4618,2021-09-27 17:22:07.155,-0.2381579081217448,
1133,1133,4622,2021-09-27 17:22:07.159,-0.2073796590169271,
1134,1134,4626,2021-09-27 17:22:07.163,-0.2190335591634115,
1135,1135,4630,2021-09-27 17:22:07.167,-0.2287451426188151,
1136,1136,4634,2021-09-27 17:22:07.171,-0.1887035369873047,
1137,1137,4638,2021-09-27 17:22:07.175,-0.2453295389811198,
1138,1138,4642,2021-09-27 17:22:07.179,-0.2142524719238281,
1139,1139,4646,2021-09-27 17:22:07.183,-0.2120113372802734,
1140,1140,4650,2021-09-27 17:22:07.187,-0.222021738688151,
1141,1141,4654,2021-09-27 17:22:07.191,-0.18646240234375,
1142,1142,4658,2021-09-27 17:22:07.195,-0.2551905314127604,
1143,1143,4662,2021-09-27 17:22:07.199,-0.2211252848307291,
1144,1144,4666,2021-09-27 17:22:07.203,-0.200955073038737,
1145,1145,4670,2021-09-27 17:22:07.207,-0.208126703898112,
1146,1146,4674,2021-09-27 17:22:07.211,-0.1833248138427734,
1147,1147,4678,2021-09-27 17:22:07.215,-0.250857671101888,
1148,1148,4682,2021-09-27 17:22:07.219,-0.222021738688151,
1149,1149,4686,2021-09-27 17:22:07.223,-0.222171147664388,
1150,1150,4690,2021-09-27 17:22:07.227,-0.2350203196207682,
1151,1151,4694,2021-09-27 17:22:07.231,-0.1969210306803385,
1152,1152,4698,2021-09-27 17:22:07.235,-0.2523517608642578,
1153,1153,4702,2021-09-27 17:22:07.239,-0.2306874593098958,
1154,1154,4706,2021-09-27 17:22:07.243,-0.2362155914306641,
1155,1155,4710,2021-09-27 17:22:07.247,-0.2426401774088541,
1156,1156,4714,2021-09-27 17:22:07.251,-0.1766014099121094,
1157,1157,4718,2021-09-27 17:22:07.255,-0.2046902974446615,
1158,1158,4722,2021-09-27 17:22:07.259,-0.1749579111735026,
1159,1159,4726,2021-09-27 17:22:07.263,-0.2052879333496094,
1160,1160,4730,2021-09-27 17:22:07.267,-0.2372614542643229,
1161,1161,4734,2021-09-27 17:22:07.271,-0.2018515268961588,
1162,1162,4738,2021-09-27 17:22:07.275,-0.257879892985026,
1163,1163,4742,2021-09-27 17:22:07.279,-0.2268028259277344,
1164,1164,4746,2021-09-27 17:22:07.283,-0.2229181925455729,
1165,1165,4750,2021-09-27 17:22:07.287,-0.2321815490722656,
1166,1166,4754,2021-09-27 17:22:07.291,-0.1795895894368489,
1167,1167,4758,2021-09-27 17:22:07.295,-0.2351697285970052,
1168,1168,4762,2021-09-27 17:22:07.299,-0.2172406514485677,
1169,1169,4766,2021-09-27 17:22:07.303,-0.2250099182128906,
1170,1170,4770,2021-09-27 17:22:07.307,-0.2430884043375651,
1171,1171,4774,2021-09-27 17:22:07.311,-0.193335215250651,
1172,1172,4778,2021-09-27 17:22:07.315,-0.2412954966227213,
1173,1173,4782,2021-09-27 17:22:07.319,-0.2230676015218099,
1174,1174,4786,2021-09-27 17:22:07.323,-0.2359167734781901,
1175,1175,4790,2021-09-27 17:22:07.327,-0.2453295389811198,
1176,1176,4794,2021-09-27 17:22:07.331,-0.1831754048665364,
1177,1177,4798,2021-09-27 17:22:07.335,-0.2142524719238281,
1178,1178,4802,2021-09-27 17:22:07.339,-0.18646240234375,
1179,1179,4806,2021-09-27 17:22:07.343,-0.2036444346110026,
1180,1180,4810,2021-09-27 17:22:07.347,-0.2179876963297526,
1181,1181,4814,2021-09-27 17:22:07.351,-0.1703262329101562,
1182,1182,4818,2021-09-27 17:22:07.355,-0.2339744567871094,
1183,1183,4822,2021-09-27 17:22:07.359,-0.2238146464029948,
1184,1184,4826,2021-09-27 17:22:07.363,-0.251305898030599,
1185,1185,4830,2021-09-27 17:22:07.367,-0.2771536509195964,
1186,1186,4834,2021-09-27 17:22:07.371,-0.2185853322347005,
1187,1187,4838,2021-09-27 17:22:07.375,-0.2519035339355469,
1188,1188,4842,2021-09-27 17:22:07.379,-0.2155971527099609,
1189,1189,4846,2021-09-27 17:22:07.383,-0.2344226837158203,
1190,1190,4850,2021-09-27 17:22:07.387,-0.2646032969156901,
1191,1191,4854,2021-09-27 17:22:07.391,-0.2169418334960937,
1192,1192,4858,2021-09-27 17:22:07.395,-0.2542940775553385,
1193,1193,4862,2021-09-27 17:22:07.399,-0.2021503448486328,
1194,1194,4866,2021-09-27 17:22:07.403,-0.1952775319417318,
1195,1195,4870,2021-09-27 17:22:07.407,-0.215298334757487,
1196,1196,4874,2021-09-27 17:22:07.411,-0.1806354522705078,
1197,1197,4878,2021-09-27 17:22:07.415,-0.2333768208821615,
1198,1198,4882,2021-09-27 17:22:07.419,-0.2012538909912109,
1199,1199,4886,2021-09-27 17:22:07.423,-0.2061843872070312,
1200,1200,4890,2021-09-27 17:22:07.427,-0.2302392323811849,
1201,1201,4894,2021-09-27 17:22:07.431,-0.200656255086263,
1202,1202,4898,2021-09-27 17:22:07.435,-0.2501106262207032,
1203,1203,4902,2021-09-27 17:22:07.439,-0.2118619283040365,
1204,1204,4906,2021-09-27 17:22:07.443,-0.2214241027832031,
1205,1205,4910,2021-09-27 17:22:07.447,-0.2574316660563151,
1206,1206,4914,2021-09-27 17:22:07.451,-0.214999516805013,
1207,1207,4918,2021-09-27 17:22:07.455,-0.2253087361653646,
1208,1208,4922,2021-09-27 17:22:07.459,-0.0990581512451172,
1209,1209,4926,2021-09-27 17:22:07.463,0.0415356953938802,
1210,1210,4930,2021-09-27 17:22:07.467,0.1745096842447916,
1211,1211,4934,2021-09-27 17:22:07.471,0.3221257527669271,
1212,1212,4938,2021-09-27 17:22:07.475,0.286566416422526,
1213,1213,4942,2021-09-27 17:22:07.479,0.1134014129638672,
1214,1214,4946,2021-09-27 17:22:07.483,-0.3079319000244141,
1215,1215,4950,2021-09-27 17:22:07.487,-0.7598940531412761,
1216,1216,4954,2021-09-27 17:22:07.491,-1.034806569417318,
1217,1217,4958,2021-09-27 17:22:07.495,-1.1520926157633464,
1218,1218,4962,2021-09-27 17:22:07.499,-0.9372425079345704,
1219,1219,4966,2021-09-27 17:22:07.503,-0.6479867299397787,
1220,1220,4970,2021-09-27 17:22:07.507,-0.4122193654378255,
1221,1221,4974,2021-09-27 17:22:07.511,-0.1976680755615234,
1222,1222,4978,2021-09-27 17:22:07.515,-0.143133799235026,
1223,1223,4982,2021-09-27 17:22:07.519,-0.0551319122314453,
1224,1224,4986,2021-09-27 17:22:07.523,-0.0321229298909505,
1225,1225,4990,2021-09-27 17:22:07.527,-0.0369040171305338,
1226,1226,4994,2021-09-27 17:22:07.531,0.0073210398356119,
1227,1227,4998,2021-09-27 17:22:07.535,-0.0657399495442708,
1228,1228,5002,2021-09-27 17:22:07.539,-0.063947041829427,
1229,1229,5006,2021-09-27 17:22:07.543,-0.0797843933105468,
1230,1230,5010,2021-09-27 17:22:07.547,-0.1056321461995442,
1231,1231,5014,2021-09-27 17:22:07.551,-0.0691763559977213,
1232,1232,5018,2021-09-27 17:22:07.555,-0.1358127593994141,
1233,1233,5022,2021-09-27 17:22:07.559,-0.1407432556152344,
1234,1234,5026,2021-09-27 17:22:07.563,-0.1704756418863932,
1235,1235,5030,2021-09-27 17:22:07.567,-0.2057361602783203,
1236,1236,5034,2021-09-27 17:22:07.571,-0.1633040110270182,
1237,1237,5038,2021-09-27 17:22:07.575,-0.2106666564941406,
1238,1238,5042,2021-09-27 17:22:07.579,-0.1975186665852865,
1239,1239,5046,2021-09-27 17:22:07.583,-0.2248605092366536,
1240,1240,5050,2021-09-27 17:22:07.587,-0.2539952596028646,
1241,1241,5054,2021-09-27 17:22:07.591,-0.2051385243733724,
1242,1242,5058,2021-09-27 17:22:07.595,-0.2533976236979167,
1243,1243,5062,2021-09-27 17:22:07.599,-0.2326297760009766,
1244,1244,5066,2021-09-27 17:22:07.603,-0.2401002248128255,
1245,1245,5070,2021-09-27 17:22:07.607,-0.2529493967692057,
1246,1246,5074,2021-09-27 17:22:07.611,-0.2161947886149088,
1247,1247,5078,2021-09-27 17:22:07.615,-0.2672926584879557,
1248,1248,5082,2021-09-27 17:22:07.619,-0.2217229207356771,
1249,1249,5086,2021-09-27 17:22:07.623,-0.2063337961832682,
1250,1250,5090,2021-09-27 17:22:07.627,-0.2215735117594401,
1251,1251,5094,2021-09-27 17:22:07.631,-0.1903470357259114,
1252,1252,5098,2021-09-27 17:22:07.635,-0.2529493967692057,
1253,1253,5102,2021-09-27 17:22:07.639,-0.2339744567871094,
1254,1254,5106,2021-09-27 17:22:07.643,-0.2341238657633463,
1255,1255,5110,2021-09-27 17:22:07.647,-0.2276992797851562,
1256,1256,5114,2021-09-27 17:22:07.651,-0.1749579111735026,
1257,1257,5118,2021-09-27 17:22:07.655,-0.2272510528564453,
1258,1258,5122,2021-09-27 17:22:07.659,-0.2093219757080078,
1259,1259,5126,2021-09-27 17:22:07.663,-0.2256075541178385,
1260,1260,5130,2021-09-27 17:22:07.667,-0.2403990427652995,
1261,1261,5134,2021-09-27 17:22:07.671,-0.200955073038737,
1262,1262,5138,2021-09-27 17:22:07.675,-0.2660973866780599,
1263,1263,5142,2021-09-27 17:22:07.679,-0.2445824940999349,
1264,1264,5146,2021-09-27 17:22:07.683,-0.2457777659098307,
1265,1265,5150,2021-09-27 17:22:07.687,-0.2498118082682291,
1266,1266,5154,2021-09-27 17:22:07.691,-0.1960245768229166,
1267,1267,5158,2021-09-27 17:22:07.695,-0.2395025889078776,
1268,1268,5162,2021-09-27 17:22:07.699,-0.2069314320882161,
1269,1269,5166,2021-09-27 17:22:07.703,-0.2212746938069661,
1270,1270,5170,2021-09-27 17:22:07.707,-0.2424907684326172,
1271,1271,5174,2021-09-27 17:22:07.711,-0.1966222127278646,
1272,1272,5178,2021-09-27 17:22:07.715,-0.2468236287434896,
1273,1273,5182,2021-09-27 17:22:07.719,-0.2197806040445963,
1274,1274,5186,2021-09-27 17:22:07.723,-0.2351697285970052,
1275,1275,5190,2021-09-27 17:22:07.727,-0.2602704366048177,
1276,1276,5194,2021-09-27 17:22:07.731,-0.2055867513020833,
1277,1277,5198,2021-09-27 17:22:07.735,-0.2421919504801432,
1278,1278,5202,2021-09-27 17:22:07.739,-0.2114137013753255,
1279,1279,5206,2021-09-27 17:22:07.743,-0.2318827311197916,
1280,1280,5210,2021-09-27 17:22:07.747,-0.2637068430582682,
1281,1281,5214,2021-09-27 17:22:07.751,-0.2215735117594401,
1282,1282,5218,2021-09-27 17:22:07.755,-0.2690855662027995,
1283,1283,5222,2021-09-27 17:22:07.759,-0.2445824940999349,
1284,1284,5226,2021-09-27 17:22:07.763,-0.2548917134602865,
1285,1285,5230,2021-09-27 17:22:07.767,-0.2499612172444661,
1286,1286,5234,2021-09-27 17:22:07.771,-0.1739120483398437,
1287,1287,5238,2021-09-27 17:22:07.775,-0.2172406514485677,
1288,1288,5242,2021-09-27 17:22:07.779,-0.1907952626546224,
1289,1289,5246,2021-09-27 17:22:07.783,-0.1786931355794271,
1290,1290,5250,2021-09-27 17:22:07.787,-0.193484624226888,
1291,1291,5254,2021-09-27 17:22:07.791,-0.164947509765625,
1292,1292,5258,2021-09-27 17:22:07.795,-0.251156489054362,
1293,1293,5262,2021-09-27 17:22:07.799,-0.2463754018147786,
1294,1294,5266,2021-09-27 17:22:07.803,-0.2275498708089193,
1295,1295,5270,2021-09-27 17:22:07.807,-0.1882553100585937,
1296,1296,5274,2021-09-27 17:22:07.811,-0.114895502726237,
1297,1297,5278,2021-09-27 17:22:07.815,-0.1806354522705078,
1298,1298,5282,2021-09-27 17:22:07.819,-0.1931858062744141,
1299,1299,5286,2021-09-27 17:22:07.823,-0.2356179555257161,
1300,1300,5290,2021-09-27 17:22:07.827,-0.265350341796875,
1301,1301,5294,2021-09-27 17:22:07.831,-0.214999516805013,
1302,1302,5298,2021-09-27 17:22:07.835,-0.2480189005533854,
1303,1303,5302,2021-09-27 17:22:07.839,-0.1898988087972005,
1304,1304,5306,2021-09-27 17:22:07.843,-0.1924387613932291,
1305,1305,5310,2021-09-27 17:22:07.847,-0.2294921875,
1306,1306,5314,2021-09-27 17:22:07.851,-0.200506846110026,
1307,1307,5318,2021-09-27 17:22:07.855,-0.258328119913737,
1308,1308,5322,2021-09-27 17:22:07.859,-0.2288945515950521,
1309,1309,5326,2021-09-27 17:22:07.863,-0.2418931325276693,
1310,1310,5330,2021-09-27 17:22:07.867,-0.2595233917236328,
1311,1311,5334,2021-09-27 17:22:07.871,-0.200955073038737,
1312,1312,5338,2021-09-27 17:22:07.875,-0.2336756388346354,
1313,1313,5342,2021-09-27 17:22:07.879,-0.1916917165120443,
1314,1314,5346,2021-09-27 17:22:07.883,-0.2069314320882161,
1315,1315,5350,2021-09-27 17:22:07.887,-0.2383073170979818,
1316,1316,5354,2021-09-27 17:22:07.891,-0.2066326141357422,
1317,1317,5358,2021-09-27 17:22:07.895,-0.2602704366048177,
1318,1318,5362,2021-09-27 17:22:07.899,-0.2227687835693359,
1319,1319,5366,2021-09-27 17:22:07.903,-0.2245616912841797,
1320,1320,5370,2021-09-27 17:22:07.907,-0.2420425415039062,
1321,1321,5374,2021-09-27 17:22:07.911,-0.2037938435872396,
1322,1322,5378,2021-09-27 17:22:07.915,-0.2505588531494141,
1323,1323,5382,2021-09-27 17:22:07.919,-0.2241134643554687,
1324,1324,5386,2021-09-27 17:22:07.923,-0.2263545989990234,
1325,1325,5390,2021-09-27 17:22:07.927,-0.2320321400960286,
1326,1326,5394,2021-09-27 17:22:07.931,-0.1774978637695312,
1327,1327,5398,2021-09-27 17:22:07.935,-0.2418931325276693,
1328,1328,5402,2021-09-27 17:22:07.939,-0.2389049530029297,
1329,1329,5406,2021-09-27 17:22:07.943,-0.236663818359375,
1330,1330,5410,2021-09-27 17:22:07.947,-0.2271016438802083,
1331,1331,5414,2021-09-27 17:22:07.951,-0.1443290710449219,
1332,1332,5418,2021-09-27 17:22:07.955,-0.1830259958902995,
1333,1333,5422,2021-09-27 17:22:07.959,-0.1990127563476562,
1334,1334,5426,2021-09-27 17:22:07.963,-0.1925881703694661,
1335,1335,5430,2021-09-27 17:22:07.967,-0.2427895863850911,
1336,1336,5434,2021-09-27 17:22:07.971,-0.207827885945638,
1337,1337,5438,2021-09-27 17:22:07.975,-0.2551905314127604,
1338,1338,5442,2021-09-27 17:22:07.979,-0.2577304840087891,
1339,1339,5446,2021-09-27 17:22:07.983,-0.2414449055989583,
1340,1340,5450,2021-09-27 17:22:07.987,-0.2704302469889323,
1341,1341,5454,2021-09-27 17:22:07.991,-0.1928869883219401,
1342,1342,5458,2021-09-27 17:22:07.995,-0.2063337961832682,
1343,1343,5462,2021-09-27 17:22:07.999,-0.193335215250651,
1344,1344,5466,2021-09-27 17:22:08.003,-0.1836236317952474,
1345,1345,5470,2021-09-27 17:22:08.007,-0.2457777659098307,
1346,1346,5474,2021-09-27 17:22:08.011,-0.2061843872070312,
1347,1347,5478,2021-09-27 17:22:08.015,-0.2423413594563802,
1348,1348,5482,2021-09-27 17:22:08.019,-0.2094713846842448,
1349,1349,5486,2021-09-27 17:22:08.023,-0.1633040110270182,
1350,1350,5490,2021-09-27 17:22:08.027,-0.243536631266276,
1351,1351,5494,2021-09-27 17:22:08.031,-0.2445824940999349,
1352,1352,5498,2021-09-27 17:22:08.035,-0.2750619252522787,
1353,1353,5502,2021-09-27 17:22:08.039,-0.229193369547526,
1354,1354,5506,2021-09-27 17:22:08.043,-0.1776472727457682,
1355,1355,5510,2021-09-27 17:22:08.047,-0.2218723297119141,
1356,1356,5514,2021-09-27 17:22:08.051,-0.1818307240804036,
1357,1357,5518,2021-09-27 17:22:08.055,-0.2215735117594401,
1358,1358,5522,2021-09-27 17:22:08.059,-0.2468236287434896,
1359,1359,5526,2021-09-27 17:22:08.063,-0.2505588531494141,
1360,1360,5530,2021-09-27 17:22:08.067,-0.2659479777018229,
1361,1361,5534,2021-09-27 17:22:08.071,-0.1964728037516276,
1362,1362,5538,2021-09-27 17:22:08.075,-0.2257569630940755,
1363,1363,5542,2021-09-27 17:22:08.079,-0.2058855692545573,
1364,1364,5546,2021-09-27 17:22:08.083,-0.15777587890625,
1365,1365,5550,2021-09-27 17:22:08.087,-0.186163584391276,
1366,1366,5554,2021-09-27 17:22:08.091,-0.1559829711914062,
1367,1367,5558,2021-09-27 17:22:08.095,-0.2282969156901041,
1368,1368,5562,2021-09-27 17:22:08.099,-0.2581787109375,
1369,1369,5566,2021-09-27 17:22:08.103,-0.2401002248128255,
1370,1370,5570,2021-09-27 17:22:08.107,-0.2683385213216146,
1371,1371,5574,2021-09-27 17:22:08.111,-0.2020009358723958,
1372,1372,5578,2021-09-27 17:22:08.115,-0.229791005452474,
1373,1373,5582,2021-09-27 17:22:08.119,-0.2187347412109375,
1374,1374,5586,2021-09-27 17:22:08.123,-0.1972198486328125,
1375,1375,5590,2021-09-27 17:22:08.127,-0.2574316660563151,
1376,1376,5594,2021-09-27 17:22:08.131,-0.2209758758544922,
1377,1377,5598,2021-09-27 17:22:08.135,-0.2495129903157552,
1378,1378,5602,2021-09-27 17:22:08.139,-0.2333768208821615,
1379,1379,5606,2021-09-27 17:22:08.143,-0.2085749308268229,
1380,1380,5610,2021-09-27 17:22:08.147,-0.2211252848307291,
1381,1381,5614,2021-09-27 17:22:08.151,-0.1341692606608073,
1382,1382,5618,2021-09-27 17:22:08.155,-0.1668898264567057,
1383,1383,5622,2021-09-27 17:22:08.159,-0.18646240234375,
1384,1384,5626,2021-09-27 17:22:08.163,-0.1999092102050781,
1385,1385,5630,2021-09-27 17:22:08.167,-0.2731196085611979,
1386,1386,5634,2021-09-27 17:22:08.171,-0.251007080078125,
1387,1387,5638,2021-09-27 17:22:08.175,-0.3030014038085938,
1388,1388,5642,2021-09-27 17:22:08.179,-0.2920945485432943,
1389,1389,5646,2021-09-27 17:22:08.183,-0.2389049530029297,
1390,1390,5650,2021-09-27 17:22:08.187,-0.2402496337890625,
1391,1391,5654,2021-09-27 17:22:08.191,-0.1695791880289713,
1392,1392,5658,2021-09-27 17:22:08.195,-0.2196311950683594,
1393,1393,5662,2021-09-27 17:22:08.199,-0.2318827311197916,
1394,1394,5666,2021-09-27 17:22:08.203,-0.2073796590169271,
1395,1395,5670,2021-09-27 17:22:08.207,-0.244134267171224,
1396,1396,5674,2021-09-27 17:22:08.211,-0.18646240234375,
1397,1397,5678,2021-09-27 17:22:08.215,-0.2173900604248047,
1398,1398,5682,2021-09-27 17:22:08.219,-0.2084255218505859,
1399,1399,5686,2021-09-27 17:22:08.223,-0.1828765869140625,
1400,1400,5690,2021-09-27 17:22:08.227,-0.2176888783772786,
1401,1401,5694,2021-09-27 17:22:08.231,-0.1671886444091797,
1402,1402,5698,2021-09-27 17:22:08.235,-0.2245616912841797,
1403,1403,5702,2021-09-27 17:22:08.239,-0.2411460876464844,
1404,1404,5706,2021-09-27 17:22:08.243,-0.2263545989990234,
1405,1405,5710,2021-09-27 17:22:08.247,-0.2910486857096354,
1406,1406,5714,2021-09-27 17:22:08.251,-0.2516047159830729,
1407,1407,5718,2021-09-27 17:22:08.255,-0.2487659454345703,
1408,1408,5722,2021-09-27 17:22:08.259,-0.1601664225260416,
1409,1409,5726,2021-09-27 17:22:08.263,-0.0460179646809895,
1410,1410,5730,2021-09-27 17:22:08.267,-0.0038846333821614,
1411,1411,5734,2021-09-27 17:22:08.271,0.1468690236409505,
1412,1412,5738,2021-09-27 17:22:08.275,0.2169418334960937,
1413,1413,5742,2021-09-27 17:22:08.279,0.2457777659098307,
1414,1414,5746,2021-09-27 17:22:08.283,0.071566899617513,
1415,1415,5750,2021-09-27 17:22:08.287,-0.3503640492757162,
1416,1416,5754,2021-09-27 17:22:08.291,-0.6922117869059246,
1417,1417,5758,2021-09-27 17:22:08.295,-0.9947649637858074,
1418,1418,5762,2021-09-27 17:22:08.299,-1.0252443949381511,
1419,1419,5766,2021-09-27 17:22:08.303,-0.8059120178222657,
1420,1420,5770,2021-09-27 17:22:08.307,-0.5986817677815756,
1421,1421,5774,2021-09-27 17:22:08.311,-0.358730951944987,
1422,1422,5778,2021-09-27 17:22:08.315,-0.2493635813395182,
1423,1423,5782,2021-09-27 17:22:08.319,-0.1396973927815755,
1424,1424,5786,2021-09-27 17:22:08.323,-0.0696245829264323,
1425,1425,5790,2021-09-27 17:22:08.327,-0.0986099243164062,
1426,1426,5794,2021-09-27 17:22:08.331,-0.0555801391601562,
1427,1427,5798,2021-09-27 17:22:08.335,-0.093081792195638,
1428,1428,5802,2021-09-27 17:22:08.339,-0.0761985778808593,
1429,1429,5806,2021-09-27 17:22:08.343,-0.035559336344401,
1430,1430,5810,2021-09-27 17:22:08.347,-0.071118672688802,
1431,1431,5814,2021-09-27 17:22:08.351,-0.0367546081542968,
1432,1432,5818,2021-09-27 17:22:08.355,-0.1010004679361979,
1433,1433,5822,2021-09-27 17:22:08.359,-0.1367092132568359,
1434,1434,5826,2021-09-27 17:22:08.363,-0.1477654774983724,
1435,1435,5830,2021-09-27 17:22:08.367,-0.2060349782307943,
1436,1436,5834,2021-09-27 17:22:08.371,-0.1803366343180338,
1437,1437,5838,2021-09-27 17:22:08.375,-0.2421919504801432,
1438,1438,5842,2021-09-27 17:22:08.379,-0.2598222096761068,
1439,1439,5846,2021-09-27 17:22:08.383,-0.2266534169514974,
1440,1440,5850,2021-09-27 17:22:08.387,-0.2490647633870443,
1441,1441,5854,2021-09-27 17:22:08.391,-0.1870600382486979,
1442,1442,5858,2021-09-27 17:22:08.395,-0.2060349782307943,
1443,1443,5862,2021-09-27 17:22:08.399,-0.2017021179199219,
1444,1444,5866,2021-09-27 17:22:08.403,-0.1837730407714844,
1445,1445,5870,2021-09-27 17:22:08.407,-0.2418931325276693,
1446,1446,5874,2021-09-27 17:22:08.411,-0.2046902974446615,
1447,1447,5878,2021-09-27 17:22:08.415,-0.258029301961263,
1448,1448,5882,2021-09-27 17:22:08.419,-0.2631092071533203,
1449,1449,5886,2021-09-27 17:22:08.423,-0.236813227335612,
1450,1450,5890,2021-09-27 17:22:08.427,-0.2874628702799479,
1451,1451,5894,2021-09-27 17:22:08.431,-0.2266534169514974,
1452,1452,5898,2021-09-27 17:22:08.435,-0.2269522349039713,
1453,1453,5902,2021-09-27 17:22:08.439,-0.1913928985595703,
1454,1454,5906,2021-09-27 17:22:08.443,-0.1619593302408854,
1455,1455,5910,2021-09-27 17:22:08.447,-0.2141030629475911,
1456,1456,5914,2021-09-27 17:22:08.451,-0.1925881703694661,
1457,1457,5918,2021-09-27 17:22:08.455,-0.251007080078125,
1458,1458,5922,2021-09-27 17:22:08.459,-0.2565352121988932,
1459,1459,5926,2021-09-27 17:22:08.463,-0.2466742197672526,
1460,1460,5930,2021-09-27 17:22:08.467,-0.2756595611572266,
1461,1461,5934,2021-09-27 17:22:08.471,-0.1891517639160156,
1462,1462,5938,2021-09-27 17:22:08.475,-0.2024491628011068,
1463,1463,5942,2021-09-27 17:22:08.479,-0.1884047190348307,
1464,1464,5946,2021-09-27 17:22:08.483,-0.1586723327636719,
1465,1465,5950,2021-09-27 17:22:08.487,-0.2161947886149088,
1466,1466,5954,2021-09-27 17:22:08.491,-0.2037938435872396,
1467,1467,5958,2021-09-27 17:22:08.495,-0.2735678354899089,
1468,1468,5962,2021-09-27 17:22:08.499,-0.2704302469889323,
1469,1469,5966,2021-09-27 17:22:08.503,-0.2185853322347005,
1470,1470,5970,2021-09-27 17:22:08.507,-0.2268028259277344,
1471,1471,5974,2021-09-27 17:22:08.511,-0.1898988087972005,
1472,1472,5978,2021-09-27 17:22:08.515,-0.2590751647949219,
1473,1473,5982,2021-09-27 17:22:08.519,-0.2660973866780599,
1474,1474,5986,2021-09-27 17:22:08.523,-0.2401002248128255,
1475,1475,5990,2021-09-27 17:22:08.527,-0.2698326110839844,
1476,1476,5994,2021-09-27 17:22:08.531,-0.2120113372802734,
1477,1477,5998,2021-09-27 17:22:08.535,-0.2523517608642578,
1478,1478,6002,2021-09-27 17:22:08.539,-0.2402496337890625,
1479,1479,6006,2021-09-27 17:22:08.543,-0.2027479807535807,
1480,1480,6010,2021-09-27 17:22:08.547,-0.2459271748860677,
1481,1481,6014,2021-09-27 17:22:08.551,-0.2090231577555338,
1482,1482,6018,2021-09-27 17:22:08.555,-0.2463754018147786,
1483,1483,6022,2021-09-27 17:22:08.559,-0.2188841501871745,
1484,1484,6026,2021-09-27 17:22:08.563,-0.1767508188883463,
1485,1485,6030,2021-09-27 17:22:08.567,-0.2387555440266927,
1486,1486,6034,2021-09-27 17:22:08.571,-0.2276992797851562,
1487,1487,6038,2021-09-27 17:22:08.575,-0.2885087331136068,
1488,1488,6042,2021-09-27 17:22:08.579,-0.2684879302978516,
1489,1489,6046,2021-09-27 17:22:08.583,-0.2169418334960937,
1490,1490,6050,2021-09-27 17:22:08.587,-0.2360661824544271,
1491,1491,6054,2021-09-27 17:22:08.591,-0.1707744598388672,
1492,1492,6058,2021-09-27 17:22:08.595,-0.2070808410644531,
1493,1493,6062,2021-09-27 17:22:08.599,-0.2060349782307943,
1494,1494,6066,2021-09-27 17:22:08.603,-0.179141362508138,
1495,1495,6070,2021-09-27 17:22:08.607,-0.201104482014974,
1496,1496,6074,2021-09-27 17:22:08.611,-0.1278940836588541,
1497,1497,6078,2021-09-27 17:22:08.615,-0.1927375793457031,
1498,1498,6082,2021-09-27 17:22:08.619,-0.2290439605712891,
1499,1499,6086,2021-09-27 17:22:08.623,-0.2033456166585286,
1500,1500,6090,2021-09-27 17:22:08.627,-0.2215735117594401,
1501,1501,6094,2021-09-27 17:22:08.631,-0.1655451456705729,
1502,1502,6098,2021-09-27 17:22:08.635,-0.215447743733724,
1503,1503,6102,2021-09-27 17:22:08.639,-0.2389049530029297,
1504,1504,6106,2021-09-27 17:22:08.643,-0.222469965616862,
1505,1505,6110,2021-09-27 17:22:08.647,-0.2517541249593099,
1506,1506,6114,2021-09-27 17:22:08.651,-0.1928869883219401,
1507,1507,6118,2021-09-27 17:22:08.655,-0.2157465616861979,
1508,1508,6122,2021-09-27 17:22:08.659,-0.1960245768229166,
1509,1509,6126,2021-09-27 17:22:08.663,-0.1745096842447916,
1510,1510,6130,2021-09-27 17:22:08.667,-0.2547423044840495,
1511,1511,6134,2021-09-27 17:22:08.671,-0.2290439605712891,
1512,1512,6138,2021-09-27 17:22:08.675,-0.2614657084147135,
1513,1513,6142,2021-09-27 17:22:08.679,-0.2489153544108073,
1514,1514,6146,2021-09-27 17:22:08.683,-0.2123101552327474,
1515,1515,6150,2021-09-27 17:22:08.687,-0.251156489054362,
1516,1516,6154,2021-09-27 17:22:08.691,-0.2130572001139323,
1517,1517,6158,2021-09-27 17:22:08.695,-0.2520529429117839,
1518,1518,6162,2021-09-27 17:22:08.699,-0.2323309580485026,
1519,1519,6166,2021-09-27 17:22:08.703,-0.2027479807535807,
1520,1520,6170,2021-09-27 17:22:08.707,-0.2562363942464193,
1521,1521,6174,2021-09-27 17:22:08.711,-0.2161947886149088,
1522,1522,6178,2021-09-27 17:22:08.715,-0.258626937866211,
1523,1523,6182,2021-09-27 17:22:08.719,-0.2430884043375651,
1524,1524,6186,2021-09-27 17:22:08.723,-0.1881059010823567,
1525,1525,6190,2021-09-27 17:22:08.727,-0.2031962076822916,
1526,1526,6194,2021-09-27 17:22:08.731,-0.1465702056884766,
1527,1527,6198,2021-09-27 17:22:08.735,-0.2118619283040365,
1528,1528,6202,2021-09-27 17:22:08.739,-0.2372614542643229,
1529,1529,6206,2021-09-27 17:22:08.743,-0.2088737487792969,
1530,1530,6210,2021-09-27 17:22:08.747,-0.2532482147216797,
1531,1531,6214,2021-09-27 17:22:08.751,-0.2136548360188802,
1532,1532,6218,2021-09-27 17:22:08.755,-0.2492141723632812,
1533,1533,6222,2021-09-27 17:22:08.759,-0.2275498708089193,
1534,1534,6226,2021-09-27 17:22:08.763,-0.179440180460612,
1535,1535,6230,2021-09-27 17:22:08.767,-0.2259063720703125,
1536,1536,6234,2021-09-27 17:22:08.771,-0.1900482177734375,
1537,1537,6238,2021-09-27 17:22:08.775,-0.2266534169514974,
1538,1538,6242,2021-09-27 17:22:08.779,-0.2172406514485677,
1539,1539,6246,2021-09-27 17:22:08.783,-0.2046902974446615,
1540,1540,6250,2021-09-27 17:22:08.787,-0.2735678354899089,
1541,1541,6254,2021-09-27 17:22:08.791,-0.2188841501871745,
1542,1542,6258,2021-09-27 17:22:08.795,-0.2173900604248047,
1543,1543,6262,2021-09-27 17:22:08.799,-0.1958751678466797,
1544,1544,6266,2021-09-27 17:22:08.803,-0.1801872253417969,
1545,1545,6270,2021-09-27 17:22:08.807,-0.2481683095296224,
1546,1546,6274,2021-09-27 17:22:08.811,-0.2096207936604818,
1547,1547,6278,2021-09-27 17:22:08.815,-0.2427895863850911,
1548,1548,6282,2021-09-27 17:22:08.819,-0.2406978607177734,
1549,1549,6286,2021-09-27 17:22:08.823,-0.2269522349039713,
1550,1550,6290,2021-09-27 17:22:08.827,-0.2743148803710938,
1551,1551,6294,2021-09-27 17:22:08.831,-0.2034950256347656,
1552,1552,6298,2021-09-27 17:22:08.835,-0.2211252848307291,
1553,1553,6302,2021-09-27 17:22:08.839,-0.1961739857991536,
1554,1554,6306,2021-09-27 17:22:08.843,-0.1559829711914062,
1555,1555,6310,2021-09-27 17:22:08.847,-0.2193323771158854,
1556,1556,6314,2021-09-27 17:22:08.851,-0.1969210306803385,
1557,1557,6318,2021-09-27 17:22:08.855,-0.251305898030599,
1558,1558,6322,2021-09-27 17:22:08.859,-0.2420425415039062,
1559,1559,6326,2021-09-27 17:22:08.863,-0.2018515268961588,
1560,1560,6330,2021-09-27 17:22:08.867,-0.2459271748860677,
1561,1561,6334,2021-09-27 17:22:08.871,-0.1907952626546224,
1562,1562,6338,2021-09-27 17:22:08.875,-0.2167924245198568,
1563,1563,6342,2021-09-27 17:22:08.879,-0.222171147664388,
1564,1564,6346,2021-09-27 17:22:08.883,-0.207977294921875,
1565,1565,6350,2021-09-27 17:22:08.887,-0.2601210276285807,
1566,1566,6354,2021-09-27 17:22:08.891,-0.2127583821614583,
1567,1567,6358,2021-09-27 17:22:08.895,-0.2321815490722656,
1568,1568,6362,2021-09-27 17:22:08.899,-0.2169418334960937,
1569,1569,6366,2021-09-27 17:22:08.903,-0.2087243398030599,
1570,1570,6370,2021-09-27 17:22:08.907,-0.2770042419433594,
1571,1571,6374,2021-09-27 17:22:08.911,-0.2389049530029297,
1572,1572,6378,2021-09-27 17:22:08.915,-0.265499750773112,
1573,1573,6382,2021-09-27 17:22:08.919,-0.2357673645019531,
1574,1574,6386,2021-09-27 17:22:08.923,-0.1848189036051432,
1575,1575,6390,2021-09-27 17:22:08.927,-0.2093219757080078,
1576,1576,6394,2021-09-27 17:22:08.931,-0.1546382904052734,
1577,1577,6398,2021-09-27 17:22:08.935,-0.1946798960367838,
1578,1578,6402,2021-09-27 17:22:08.939,-0.1876576741536458,
1579,1579,6406,2021-09-27 17:22:08.943,-0.165096918741862,
1580,1580,6410,2021-09-27 17:22:08.947,-0.2329285939534505,
1581,1581,6414,2021-09-27 17:22:08.951,-0.2033456166585286,
1582,1582,6418,2021-09-27 17:22:08.955,-0.2188841501871745,
1583,1583,6422,2021-09-27 17:22:08.959,-0.2516047159830729,
1584,1584,6426,2021-09-27 17:22:08.963,-0.2090231577555338,
1585,1585,6430,2021-09-27 17:22:08.967,-0.2523517608642578,
1586,1586,6434,2021-09-27 17:22:08.971,-0.2129077911376953,
1587,1587,6438,2021-09-27 17:22:08.975,-0.2139536539713541,
1588,1588,6442,2021-09-27 17:22:08.979,-0.2163441975911458,
1589,1589,6446,2021-09-27 17:22:08.983,-0.1682345072428385,
1590,1590,6450,2021-09-27 17:22:08.987,-0.2450307210286458,
1591,1591,6454,2021-09-27 17:22:08.991,-0.2362155914306641,
1592,1592,6458,2021-09-27 17:22:08.995,-0.2519035339355469,
1593,1593,6462,2021-09-27 17:22:08.999,-0.2556387583414714,
1594,1594,6466,2021-09-27 17:22:09.003,-0.1904964447021484,
1595,1595,6470,2021-09-27 17:22:09.007,-0.2517541249593099,
1596,1596,6474,2021-09-27 17:22:09.011,-0.2557881673177083,
1597,1597,6478,2021-09-27 17:22:09.015,-0.2720737457275391,
1598,1598,6482,2021-09-27 17:22:09.019,-0.2683385213216146,
1599,1599,6486,2021-09-27 17:22:09.023,-0.1839224497477213,
1600,1600,6490,2021-09-27 17:22:09.027,-0.2090231577555338,
1601,1601,6494,2021-09-27 17:22:09.031,-0.186163584391276,
1602,1602,6498,2021-09-27 17:22:09.035,-0.2144018809000651,
1603,1603,6502,2021-09-27 17:22:09.039,-0.2453295389811198,
1604,1604,6506,2021-09-27 17:22:09.043,-0.1985645294189453,
1605,1605,6510,2021-09-27 17:22:09.047,-0.2520529429117839,
1606,1606,6514,2021-09-27 17:22:09.051,-0.2084255218505859,
1607,1607,6518,2021-09-27 17:22:09.055,-0.1960245768229166,
1608,1608,6522,2021-09-27 17:22:09.059,-0.2181371053059896,
1609,1609,6526,2021-09-27 17:22:09.063,-0.193484624226888,
1610,1610,6530,2021-09-27 17:22:09.067,-0.2647527058919271,
1611,1611,6534,2021-09-27 17:22:09.071,-0.236813227335612,
1612,1612,6538,2021-09-27 17:22:09.075,-0.2188841501871745,
1613,1613,6542,2021-09-27 17:22:09.079,-0.1912434895833333,
1614,1614,6546,2021-09-27 17:22:09.083,-0.0566260019938151,
1615,1615,6550,2021-09-27 17:22:09.087,0.0077692667643229,
1616,1616,6554,2021-09-27 17:22:09.091,0.1709238688151041,
1617,1617,6558,2021-09-27 17:22:09.095,0.2879110972086589,
1618,1618,6562,2021-09-27 17:22:09.099,0.3215281168619792,
1619,1619,6566,2021-09-27 17:22:09.103,0.1588217417399088,
1620,1620,6570,2021-09-27 17:22:09.107,-0.3679943084716797,
1621,1621,6574,2021-09-27 17:22:09.111,-0.8053143819173179,
1622,1622,6578,2021-09-27 17:22:09.115,-1.1244519551595054,
1623,1623,6582,2021-09-27 17:22:09.119,-1.1719640096028647,
1624,1624,6586,2021-09-27 17:22:09.123,-0.8895810445149741,
1625,1625,6590,2021-09-27 17:22:09.127,-0.6145191192626954,
1626,1626,6594,2021-09-27 17:22:09.131,-0.3263092041015625,
1627,1627,6598,2021-09-27 17:22:09.135,-0.1713720957438151,
1628,1628,6602,2021-09-27 17:22:09.139,-0.1032416025797526,
1629,1629,6606,2021-09-27 17:22:09.143,-0.0132973988850911,
1630,1630,6610,2021-09-27 17:22:09.147,-0.0410874684651692,
1631,1631,6614,2021-09-27 17:22:09.151,-0.0106080373128255,
1632,1632,6618,2021-09-27 17:22:09.155,-0.0312264760335286,
1633,1633,6622,2021-09-27 17:22:09.159,-0.0797843933105468,
1634,1634,6626,2021-09-27 17:22:09.163,-0.0608094533284505,
1635,1635,6630,2021-09-27 17:22:09.167,-0.1089191436767578,
1636,1636,6634,2021-09-27 17:22:09.171,-0.057373046875,
1637,1637,6638,2021-09-27 17:22:09.175,-0.0860595703125,
1638,1638,6642,2021-09-27 17:22:09.179,-0.1480642954508463,
1639,1639,6646,2021-09-27 17:22:09.183,-0.1314798990885416,
1640,1640,6650,2021-09-27 17:22:09.187,-0.1982657114664713,
1641,1641,6654,2021-09-27 17:22:09.191,-0.1909446716308594,
1642,1642,6658,2021-09-27 17:22:09.195,-0.2463754018147786,
1643,1643,6662,2021-09-27 17:22:09.199,-0.2952321370442708,
1644,1644,6666,2021-09-27 17:22:09.203,-0.2415943145751953,
1645,1645,6670,2021-09-27 17:22:09.207,-0.2678902943929037,
1646,1646,6674,2021-09-27 17:22:09.211,-0.1999092102050781,
1647,1647,6678,2021-09-27 17:22:09.215,-0.1854165395100911,
1648,1648,6682,2021-09-27 17:22:09.219,-0.2145512898763021,
1649,1649,6686,2021-09-27 17:22:09.223,-0.1783943176269531,
1650,1650,6690,2021-09-27 17:22:09.227,-0.2575810750325521,
1651,1651,6694,2021-09-27 17:22:09.231,-0.2660973866780599,
1652,1652,6698,2021-09-27 17:22:09.235,-0.2804406483968099,
1653,1653,6702,2021-09-27 17:22:09.239,-0.2481683095296224,
1654,1654,6706,2021-09-27 17:22:09.243,-0.1543394724527995,
1655,1655,6710,2021-09-27 17:22:09.247,-0.1922893524169922,
1656,1656,6714,2021-09-27 17:22:09.251,-0.1925881703694661,
1657,1657,6718,2021-09-27 17:22:09.255,-0.2418931325276693,
1658,1658,6722,2021-09-27 17:22:09.259,-0.2684879302978516,
1659,1659,6726,2021-09-27 17:22:09.263,-0.1930363972981771,
1660,1660,6730,2021-09-27 17:22:09.267,-0.2138042449951172,
1661,1661,6734,2021-09-27 17:22:09.271,-0.1910940806070963,
1662,1662,6738,2021-09-27 17:22:09.275,-0.2217229207356771,
1663,1663,6742,2021-09-27 17:22:09.279,-0.251455307006836,
1664,1664,6746,2021-09-27 17:22:09.283,-0.1949787139892578,
1665,1665,6750,2021-09-27 17:22:09.287,-0.2377096811930338,
1666,1666,6754,2021-09-27 17:22:09.291,-0.2251593271891276,
1667,1667,6758,2021-09-27 17:22:09.295,-0.258477528889974,
1668,1668,6762,2021-09-27 17:22:09.299,-0.2643044789632162,
1669,1669,6766,2021-09-27 17:22:09.303,-0.1943810780843099,
1670,1670,6770,2021-09-27 17:22:09.307,-0.2274004618326823,
1671,1671,6774,2021-09-27 17:22:09.311,-0.2279980977376302,
1672,1672,6778,2021-09-27 17:22:09.315,-0.2684879302978516,
1673,1673,6782,2021-09-27 17:22:09.319,-0.2499612172444661,
1674,1674,6786,2021-09-27 17:22:09.323,-0.1688321431477864,
1675,1675,6790,2021-09-27 17:22:09.327,-0.2386061350504557,
1676,1676,6794,2021-09-27 17:22:09.331,-0.2266534169514974,
1677,1677,6798,2021-09-27 17:22:09.335,-0.2326297760009766,
1678,1678,6802,2021-09-27 17:22:09.339,-0.2354685465494791,
1679,1679,6806,2021-09-27 17:22:09.343,-0.1903470357259114,
1680,1680,6810,2021-09-27 17:22:09.347,-0.2554893493652344,
1681,1681,6814,2021-09-27 17:22:09.351,-0.2390543619791666,
1682,1682,6818,2021-09-27 17:22:09.355,-0.2614657084147135,
1683,1683,6822,2021-09-27 17:22:09.359,-0.2687867482503255,
1684,1684,6826,2021-09-27 17:22:09.363,-0.2043914794921875,
1685,1685,6830,2021-09-27 17:22:09.367,-0.251455307006836,
1686,1686,6834,2021-09-27 17:22:09.371,-0.229342778523763,
1687,1687,6838,2021-09-27 17:22:09.375,-0.2321815490722656,
1688,1688,6842,2021-09-27 17:22:09.379,-0.2306874593098958,
1689,1689,6846,2021-09-27 17:22:09.383,-0.1664415995279948,
1690,1690,6850,2021-09-27 17:22:09.387,-0.2144018809000651,
1691,1691,6854,2021-09-27 17:22:09.391,-0.1827271779378255,
1692,1692,6858,2021-09-27 17:22:09.395,-0.2030467987060547,
1693,1693,6862,2021-09-27 17:22:09.399,-0.2499612172444661,
1694,1694,6866,2021-09-27 17:22:09.403,-0.2106666564941406,
1695,1695,6870,2021-09-27 17:22:09.407,-0.2678902943929037,
1696,1696,6874,2021-09-27 17:22:09.411,-0.2294921875,
1697,1697,6878,2021-09-27 17:22:09.415,-0.208276112874349,
1698,1698,6882,2021-09-27 17:22:09.419,-0.2021503448486328,
1699,1699,6886,2021-09-27 17:22:09.423,-0.1523971557617187,
1700,1700,6890,2021-09-27 17:22:09.427,-0.2175394694010416,
1701,1701,6894,2021-09-27 17:22:09.431,-0.1960245768229166,
1702,1702,6898,2021-09-27 17:22:09.435,-0.2108160654703776,
1703,1703,6902,2021-09-27 17:22:09.439,-0.2244122823079427,
1704,1704,6906,2021-09-27 17:22:09.443,-0.1679356892903646,
1705,1705,6910,2021-09-27 17:22:09.447,-0.2308368682861328,
1706,1706,6914,2021-09-27 17:22:09.451,-0.2069314320882161,
1707,1707,6918,2021-09-27 17:22:09.455,-0.2039432525634766,
1708,1708,6922,2021-09-27 17:22:09.459,-0.2088737487792969,
1709,1709,6926,2021-09-27 17:22:09.463,-0.1819801330566406,
1710,1710,6930,2021-09-27 17:22:09.467,-0.2620633443196615,
1711,1711,6934,2021-09-27 17:22:09.471,-0.2456283569335937,
1712,1712,6938,2021-09-27 17:22:09.475,-0.2375602722167969,
1713,1713,6942,2021-09-27 17:22:09.479,-0.2341238657633463,
1714,1714,6946,2021-09-27 17:22:09.483,-0.1706250508626302,
1715,1715,6950,2021-09-27 17:22:09.487,-0.2398014068603516,
1716,1716,6954,2021-09-27 17:22:09.491,-0.236514409383138,
1717,1717,6958,2021-09-27 17:22:09.495,-0.2702808380126953,
1718,1718,6962,2021-09-27 17:22:09.499,-0.2879110972086589,
1719,1719,6966,2021-09-27 17:22:09.503,-0.1969210306803385,
1720,1720,6970,2021-09-27 17:22:09.507,-0.1976680755615234,
1721,1721,6974,2021-09-27 17:22:09.511,-0.1393985748291016,
1722,1722,6978,2021-09-27 17:22:09.515,-0.1662921905517578,
1723,1723,6982,2021-09-27 17:22:09.519,-0.236663818359375,
1724,1724,6986,2021-09-27 17:22:09.523,-0.2375602722167969,
1725,1725,6990,2021-09-27 17:22:09.527,-0.2998638153076172,
1726,1726,6994,2021-09-27 17:22:09.531,-0.2433872222900391,
1727,1727,6998,2021-09-27 17:22:09.535,-0.2408472696940104,
1728,1728,7002,2021-09-27 17:22:09.539,-0.2886581420898438,
1729,1729,7006,2021-09-27 17:22:09.543,-0.2447319030761719,
1730,1730,7010,2021-09-27 17:22:09.547,-0.2536964416503907,
1731,1731,7014,2021-09-27 17:22:09.551,-0.164648691813151,
1732,1732,7018,2021-09-27 17:22:09.555,-0.1532936096191406,
1733,1733,7022,2021-09-27 17:22:09.559,-0.2060349782307943,
1734,1734,7026,2021-09-27 17:22:09.563,-0.1915423075358073,
1735,1735,7030,2021-09-27 17:22:09.567,-0.2550411224365235,
1736,1736,7034,2021-09-27 17:22:09.571,-0.2312850952148437,
1737,1737,7038,2021-09-27 17:22:09.575,-0.2393531799316406,
1738,1738,7042,2021-09-27 17:22:09.579,-0.2666950225830078,
1739,1739,7046,2021-09-27 17:22:09.583,-0.2176888783772786,
1740,1740,7050,2021-09-27 17:22:09.587,-0.2544434865315755,
1741,1741,7054,2021-09-27 17:22:09.591,-0.2233664194742838,
1742,1742,7058,2021-09-27 17:22:09.595,-0.2338250478108724,
1743,1743,7062,2021-09-27 17:22:09.599,-0.2333768208821615,
1744,1744,7066,2021-09-27 17:22:09.603,-0.1730155944824219,
1745,1745,7070,2021-09-27 17:22:09.607,-0.2359167734781901,
1746,1746,7074,2021-09-27 17:22:09.611,-0.2109654744466146,
1747,1747,7078,2021-09-27 17:22:09.615,-0.2314345041910807,
1748,1748,7082,2021-09-27 17:22:09.619,-0.251455307006836,
1749,1749,7086,2021-09-27 17:22:09.623,-0.1870600382486979,
1750,1750,7090,2021-09-27 17:22:09.627,-0.2173900604248047,
1751,1751,7094,2021-09-27 17:22:09.631,-0.1733144124348958,
1752,1752,7098,2021-09-27 17:22:09.635,-0.1774978637695312,
1753,1753,7102,2021-09-27 17:22:09.639,-0.1940822601318359,
1754,1754,7106,2021-09-27 17:22:09.643,-0.1456737518310547,
1755,1755,7110,2021-09-27 17:22:09.647,-0.2036444346110026,
1756,1756,7114,2021-09-27 17:22:09.651,-0.1782449086507161,
1757,1757,7118,2021-09-27 17:22:09.655,-0.1928869883219401,
1758,1758,7122,2021-09-27 17:22:09.659,-0.2209758758544922,
1759,1759,7126,2021-09-27 17:22:09.663,-0.1686827341715495,
1760,1760,7130,2021-09-27 17:22:09.667,-0.2266534169514974,
1761,1761,7134,2021-09-27 17:22:09.671,-0.2100690205891927,
1762,1762,7138,2021-09-27 17:22:09.675,-0.2188841501871745,
1763,1763,7142,2021-09-27 17:22:09.679,-0.2469730377197266,
1764,1764,7146,2021-09-27 17:22:09.683,-0.1963233947753906,
1765,1765,7150,2021-09-27 17:22:09.687,-0.2386061350504557,
1766,1766,7154,2021-09-27 17:22:09.691,-0.2205276489257812,
1767,1767,7158,2021-09-27 17:22:09.695,-0.2459271748860677,
1768,1768,7162,2021-09-27 17:22:09.699,-0.2783489227294922,
1769,1769,7166,2021-09-27 17:22:09.703,-0.2215735117594401,
1770,1770,7170,2021-09-27 17:22:09.707,-0.2381579081217448,
1771,1771,7174,2021-09-27 17:22:09.711,-0.1610628763834635,
1772,1772,7178,2021-09-27 17:22:09.715,-0.1570288340250651,
1773,1773,7182,2021-09-27 17:22:09.719,-0.2048397064208984,
1774,1774,7186,2021-09-27 17:22:09.723,-0.1543394724527995,
1775,1775,7190,2021-09-27 17:22:09.727,-0.1849683125813802,
1776,1776,7194,2021-09-27 17:22:09.731,-0.1471678415934245,
1777,1777,7198,2021-09-27 17:22:09.735,-0.1680850982666016,
1778,1778,7202,2021-09-27 17:22:09.739,-0.2185853322347005,
1779,1779,7206,2021-09-27 17:22:09.743,-0.2049891153971354,
1780,1780,7210,2021-09-27 17:22:09.747,-0.2792453765869141,
1781,1781,7214,2021-09-27 17:22:09.751,-0.2312850952148437,
1782,1782,7218,2021-09-27 17:22:09.755,-0.2135054270426432,
1783,1783,7222,2021-09-27 17:22:09.759,-0.2214241027832031,
1784,1784,7226,2021-09-27 17:22:09.763,-0.1728661855061849,
1785,1785,7230,2021-09-27 17:22:09.767,-0.2677408854166667,
1786,1786,7234,2021-09-27 17:22:09.771,-0.2804406483968099,
1787,1787,7238,2021-09-27 17:22:09.775,-0.293887456258138,
1788,1788,7242,2021-09-27 17:22:09.779,-0.2968756357828776,
1789,1789,7246,2021-09-27 17:22:09.783,-0.2211252848307291,
1790,1790,7250,2021-09-27 17:22:09.787,-0.2608680725097657,
1791,1791,7254,2021-09-27 17:22:09.791,-0.2052879333496094,
1792,1792,7258,2021-09-27 17:22:09.795,-0.2308368682861328,
1793,1793,7262,2021-09-27 17:22:09.799,-0.2804406483968099,
1794,1794,7266,2021-09-27 17:22:09.803,-0.2380084991455078,
1795,1795,7270,2021-09-27 17:22:09.807,-0.2838770548502604,
1796,1796,7274,2021-09-27 17:22:09.811,-0.2317333221435547,
1797,1797,7278,2021-09-27 17:22:09.815,-0.2420425415039062,
1798,1798,7282,2021-09-27 17:22:09.819,-0.2690855662027995,
1799,1799,7286,2021-09-27 17:22:09.823,-0.2141030629475911,
1800,1800,7290,2021-09-27 17:22:09.827,-0.2932898203531901,
1801,1801,7294,2021-09-27 17:22:09.831,-0.2731196085611979,
1802,1802,7298,2021-09-27 17:22:09.835,-0.2489153544108073,
1803,1803,7302,2021-09-27 17:22:09.839,-0.1567300160725911,
1804,1804,7306,2021-09-27 17:22:09.843,0.0525919596354166,
1805,1805,7310,2021-09-27 17:22:09.847,0.1426855723063151,
1806,1806,7314,2021-09-27 17:22:09.851,0.3018061319986979,
1807,1807,7318,2021-09-27 17:22:09.855,0.3543980916341146,
1808,1808,7322,2021-09-27 17:22:09.859,0.2360661824544271,
1809,1809,7326,2021-09-27 17:22:09.863,-0.0675328572591145,
1810,1810,7330,2021-09-27 17:22:09.867,-0.595693588256836,
1811,1811,7334,2021-09-27 17:22:09.871,-0.9526316324869792,
1812,1812,7338,2021-09-27 17:22:09.875,-1.1734580993652346,
1813,1813,7342,2021-09-27 17:22:09.879,-1.1380481719970703,
1814,1814,7346,2021-09-27 17:22:09.883,-0.8165200551350913,
1815,1815,7350,2021-09-27 17:22:09.887,-0.5408604939778646,
1816,1816,7354,2021-09-27 17:22:09.891,-0.2705796559651693,
1817,1817,7358,2021-09-27 17:22:09.895,-0.1483631134033203,
1818,1818,7362,2021-09-27 17:22:09.899,-0.0891971588134765,
1819,1819,7366,2021-09-27 17:22:09.903,0.0121021270751953,
1820,1820,7370,2021-09-27 17:22:09.907,-0.0303300221761067,
1821,1821,7374,2021-09-27 17:22:09.911,0.0043328603108723,
1822,1822,7378,2021-09-27 17:22:09.915,-0.0174808502197265,
1823,1823,7382,2021-09-27 17:22:09.919,-0.0458685557047526,
1824,1824,7386,2021-09-27 17:22:09.923,0.01434326171875,
1825,1825,7390,2021-09-27 17:22:09.927,-0.0585683186848958,
1826,1826,7394,2021-09-27 17:22:09.931,-0.0437768300374349,
1827,1827,7398,2021-09-27 17:22:09.935,-0.0951735178629557,
1828,1828,7402,2021-09-27 17:22:09.939,-0.1658439636230469,
1829,1829,7406,2021-09-27 17:22:09.943,-0.1325257619222005,
1830,1830,7410,2021-09-27 17:22:09.947,-0.2061843872070312,
1831,1831,7414,2021-09-27 17:22:09.951,-0.1715215047200521,
1832,1832,7418,2021-09-27 17:22:09.955,-0.1438808441162109,
1833,1833,7422,2021-09-27 17:22:09.959,-0.2203782399495443,
1834,1834,7426,2021-09-27 17:22:09.963,-0.1969210306803385,
1835,1835,7430,2021-09-27 17:22:09.967,-0.2702808380126953,
1836,1836,7434,2021-09-27 17:22:09.971,-0.279394785563151,
1837,1837,7438,2021-09-27 17:22:09.975,-0.2529493967692057,
1838,1838,7442,2021-09-27 17:22:09.979,-0.2994155883789063,
1839,1839,7446,2021-09-27 17:22:09.983,-0.2196311950683594,
1840,1840,7450,2021-09-27 17:22:09.987,-0.2398014068603516,
1841,1841,7454,2021-09-27 17:22:09.991,-0.2276992797851562,
1842,1842,7458,2021-09-27 17:22:09.995,-0.2308368682861328,
1843,1843,7462,2021-09-27 17:22:09.999,-0.3170458475748698,
1844,1844,7466,2021-09-27 17:22:10.003,-0.2577304840087891,
1845,1845,7470,2021-09-27 17:22:10.007,-0.2637068430582682,
1846,1846,7474,2021-09-27 17:22:10.011,-0.2329285939534505,
1847,1847,7478,2021-09-27 17:22:10.015,-0.2066326141357422,
1848,1848,7482,2021-09-27 17:22:10.019,-0.2629597981770833,
1849,1849,7486,2021-09-27 17:22:10.023,-0.1993115743001302,
1850,1850,7490,2021-09-27 17:22:10.027,-0.208276112874349,
1851,1851,7494,2021-09-27 17:22:10.031,-0.1773484547932942,
1852,1852,7498,2021-09-27 17:22:10.035,-0.1537418365478516,
1853,1853,7502,2021-09-27 17:22:10.039,-0.2266534169514974,
1854,1854,7506,2021-09-27 17:22:10.043,-0.1895999908447266,
1855,1855,7510,2021-09-27 17:22:10.047,-0.2318827311197916,
1856,1856,7514,2021-09-27 17:22:10.051,-0.2260557810465495,
1857,1857,7518,2021-09-27 17:22:10.055,-0.193932851155599,
1858,1858,7522,2021-09-27 17:22:10.059,-0.2178382873535156,
1859,1859,7526,2021-09-27 17:22:10.063,-0.1229635874430338,
1860,1860,7530,2021-09-27 17:22:10.067,-0.1736132303873698,
1861,1861,7534,2021-09-27 17:22:10.071,-0.1916917165120443,
1862,1862,7538,2021-09-27 17:22:10.075,-0.1779460906982422,
1863,1863,7542,2021-09-27 17:22:10.079,-0.2502600351969401,
1864,1864,7546,2021-09-27 17:22:10.083,-0.2055867513020833,
1865,1865,7550,2021-09-27 17:22:10.087,-0.2504094441731771,
1866,1866,7554,2021-09-27 17:22:10.091,-0.2519035339355469,
1867,1867,7558,2021-09-27 17:22:10.095,-0.2332274119059245,
1868,1868,7562,2021-09-27 17:22:10.099,-0.2935886383056641,
1869,1869,7566,2021-09-27 17:22:10.103,-0.2229181925455729,
1870,1870,7570,2021-09-27 17:22:10.107,-0.2565352121988932,
1871,1871,7574,2021-09-27 17:22:10.111,-0.2556387583414714,
1872,1872,7578,2021-09-27 17:22:10.115,-0.222619374593099,
1873,1873,7582,2021-09-27 17:22:10.119,-0.2605692545572917,
1874,1874,7586,2021-09-27 17:22:10.123,-0.2096207936604818,
1875,1875,7590,2021-09-27 17:22:10.127,-0.286566416422526,
1876,1876,7594,2021-09-27 17:22:10.131,-0.2852217356363932,
1877,1877,7598,2021-09-27 17:22:10.135,-0.2487659454345703,
1878,1878,7602,2021-09-27 17:22:10.139,-0.2837276458740235,
1879,1879,7606,2021-09-27 17:22:10.143,-0.2126089731852213,
1880,1880,7610,2021-09-27 17:22:10.147,-0.2753607432047526,
1881,1881,7614,2021-09-27 17:22:10.151,-0.2898534138997396,
1882,1882,7618,2021-09-27 17:22:10.155,-0.2375602722167969,
1883,1883,7622,2021-09-27 17:22:10.159,-0.2523517608642578,
1884,1884,7626,2021-09-27 17:22:10.163,-0.1510524749755859,
1885,1885,7630,2021-09-27 17:22:10.167,-0.179141362508138,
1886,1886,7634,2021-09-27 17:22:10.171,-0.1813824971516927,
1887,1887,7638,2021-09-27 17:22:10.175,-0.1621087392171224,
1888,1888,7642,2021-09-27 17:22:10.179,-0.222619374593099,
1889,1889,7646,2021-09-27 17:22:10.183,-0.1692803700764974,
1890,1890,7650,2021-09-27 17:22:10.187,-0.2135054270426432,
1891,1891,7654,2021-09-27 17:22:10.191,-0.1876576741536458,
1892,1892,7658,2021-09-27 17:22:10.195,-0.1419385274251302,
1893,1893,7662,2021-09-27 17:22:10.199,-0.1872094472249349,
1894,1894,7666,2021-09-27 17:22:10.203,-0.1269976298014323,
1895,1895,7670,2021-09-27 17:22:10.207,-0.1943810780843099,
1896,1896,7674,2021-09-27 17:22:10.211,-0.2115631103515625,
1897,1897,7678,2021-09-27 17:22:10.215,-0.1888529459635416,
1898,1898,7682,2021-09-27 17:22:10.219,-0.2641550699869792,
1899,1899,7686,2021-09-27 17:22:10.223,-0.21514892578125,
1900,1900,7690,2021-09-27 17:22:10.227,-0.2837276458740235,
1901,1901,7694,2021-09-27 17:22:10.231,-0.2931404113769532,
1902,1902,7698,2021-09-27 17:22:10.235,-0.2392037709554036,
1903,1903,7702,2021-09-27 17:22:10.239,-0.2717749277750651,
1904,1904,7706,2021-09-27 17:22:10.243,-0.2057361602783203,
1905,1905,7710,2021-09-27 17:22:10.247,-0.2445824940999349,
1906,1906,7714,2021-09-27 17:22:10.251,-0.2347215016682943,
1907,1907,7718,2021-09-27 17:22:10.255,-0.1906458536783854,
1908,1908,7722,2021-09-27 17:22:10.259,-0.2327791849772135,
1909,1909,7726,2021-09-27 17:22:10.263,-0.1836236317952474,
1910,1910,7730,2021-09-27 17:22:10.267,-0.2412954966227213,
1911,1911,7734,2021-09-27 17:22:10.271,-0.2499612172444661,
1912,1912,7738,2021-09-27 17:22:10.275,-0.2244122823079427,
1913,1913,7742,2021-09-27 17:22:10.279,-0.2623621622721354,
1914,1914,7746,2021-09-27 17:22:10.283,-0.1873588562011719,
1915,1915,7750,2021-09-27 17:22:10.287,-0.2360661824544271,
1916,1916,7754,2021-09-27 17:22:10.291,-0.2318827311197916,
1917,1917,7758,2021-09-27 17:22:10.295,-0.1881059010823567,
1918,1918,7762,2021-09-27 17:22:10.299,-0.2329285939534505,
1919,1919,7766,2021-09-27 17:22:10.303,-0.1898988087972005,
1920,1920,7770,2021-09-27 17:22:10.307,-0.2356179555257161,
1921,1921,7774,2021-09-27 17:22:10.311,-0.2172406514485677,
1922,1922,7778,2021-09-27 17:22:10.315,-0.1857153574625651,
1923,1923,7782,2021-09-27 17:22:10.319,-0.2644538879394532,
1924,1924,7786,2021-09-27 17:22:10.323,-0.2269522349039713,
1925,1925,7790,2021-09-27 17:22:10.327,-0.2622127532958985,
1926,1926,7794,2021-09-27 17:22:10.331,-0.2421919504801432,
1927,1927,7798,2021-09-27 17:22:10.335,-0.1769002278645833,
1928,1928,7802,2021-09-27 17:22:10.339,-0.200506846110026,
1929,1929,7806,2021-09-27 17:22:10.343,-0.1319281260172526,
1930,1930,7810,2021-09-27 17:22:10.347,-0.1665910085042317,
1931,1931,7814,2021-09-27 17:22:10.351,-0.1921399434407552,
1932,1932,7818,2021-09-27 17:22:10.355,-0.215298334757487,
1933,1933,7822,2021-09-27 17:22:10.359,-0.2982203165690104,
1934,1934,7826,2021-09-27 17:22:10.363,-0.2172406514485677,
1935,1935,7830,2021-09-27 17:22:10.367,-0.2278486887613932,
1936,1936,7834,2021-09-27 17:22:10.371,-0.2145512898763021,
1937,1937,7838,2021-09-27 17:22:10.375,-0.1776472727457682,
1938,1938,7842,2021-09-27 17:22:10.379,-0.2217229207356771,
1939,1939,7846,2021-09-27 17:22:10.383,-0.1594193776448567,
1940,1940,7850,2021-09-27 17:22:10.387,-0.215298334757487,
1941,1941,7854,2021-09-27 17:22:10.391,-0.2360661824544271,
1942,1942,7858,2021-09-27 17:22:10.395,-0.2260557810465495,
1943,1943,7862,2021-09-27 17:22:10.399,-0.2717749277750651,
1944,1944,7866,2021-09-27 17:22:10.403,-0.1774978637695312,
1945,1945,7870,2021-09-27 17:22:10.407,-0.2031962076822916,
1946,1946,7874,2021-09-27 17:22:10.411,-0.1981163024902344,
1947,1947,7878,2021-09-27 17:22:10.415,-0.1734638214111328,
1948,1948,7882,2021-09-27 17:22:10.419,-0.2421919504801432,
1949,1949,7886,2021-09-27 17:22:10.423,-0.2066326141357422,
1950,1950,7890,2021-09-27 17:22:10.427,-0.2914969126383464,
1951,1951,7894,2021-09-27 17:22:10.431,-0.2932898203531901,
1952,1952,7898,2021-09-27 17:22:10.435,-0.2381579081217448,
1953,1953,7902,2021-09-27 17:22:10.439,-0.2831300099690755,
1954,1954,7906,2021-09-27 17:22:10.443,-0.1990127563476562,
1955,1955,7910,2021-09-27 17:22:10.447,-0.2386061350504557,
1956,1956,7914,2021-09-27 17:22:10.451,-0.2100690205891927,
1957,1957,7918,2021-09-27 17:22:10.455,-0.1691309611002604,
1958,1958,7922,2021-09-27 17:22:10.459,-0.2335262298583984,
1959,1959,7926,2021-09-27 17:22:10.463,-0.1798884073893229,
1960,1960,7930,2021-09-27 17:22:10.467,-0.2356179555257161,
1961,1961,7934,2021-09-27 17:22:10.471,-0.2142524719238281,
1962,1962,7938,2021-09-27 17:22:10.475,-0.1816813151041666,
1963,1963,7942,2021-09-27 17:22:10.479,-0.2474212646484375,
1964,1964,7946,2021-09-27 17:22:10.483,-0.1879564921061198,
1965,1965,7950,2021-09-27 17:22:10.487,-0.2383073170979818,
1966,1966,7954,2021-09-27 17:22:10.491,-0.2108160654703776,
1967,1967,7958,2021-09-27 17:22:10.495,-0.1567300160725911,
1968,1968,7962,2021-09-27 17:22:10.499,-0.1890023549397786,
1969,1969,7966,2021-09-27 17:22:10.503,-0.1419385274251302,
1970,1970,7970,2021-09-27 17:22:10.507,-0.2359167734781901,
1971,1971,7974,2021-09-27 17:22:10.511,-0.2643044789632162,
1972,1972,7978,2021-09-27 17:22:10.515,-0.2444330851236979,
1973,1973,7982,2021-09-27 17:22:10.519,-0.2776018778483073,
1974,1974,7986,2021-09-27 17:22:10.523,-0.2021503448486328,
1975,1975,7990,2021-09-27 17:22:10.527,-0.258029301961263,
1976,1976,7994,2021-09-27 17:22:10.531,-0.2502600351969401,
1977,1977,7998,2021-09-27 17:22:10.535,-0.2282969156901041,
1978,1978,8002,2021-09-27 17:22:10.539,-0.2994155883789063,
1979,1979,8006,2021-09-27 17:22:10.543,-0.2421919504801432,
1980,1980,8010,2021-09-27 17:22:10.547,-0.272223154703776,
1981,1981,8014,2021-09-27 17:22:10.551,-0.2493635813395182,
1982,1982,8018,2021-09-27 17:22:10.555,-0.2141030629475911,
1983,1983,8022,2021-09-27 17:22:10.559,-0.2424907684326172,
1984,1984,8026,2021-09-27 17:22:10.563,-0.1653957366943359,
1985,1985,8030,2021-09-27 17:22:10.567,-0.2066326141357422,
1986,1986,8034,2021-09-27 17:22:10.571,-0.2166430155436198,
1987,1987,8038,2021-09-27 17:22:10.575,-0.2227687835693359,
1988,1988,8042,2021-09-27 17:22:10.579,-0.2826817830403646,
1989,1989,8046,2021-09-27 17:22:10.583,-0.193484624226888,
1990,1990,8050,2021-09-27 17:22:10.587,-0.1736132303873698,
1991,1991,8054,2021-09-27 17:22:10.591,-0.0602118174235026,
1992,1992,8058,2021-09-27 17:22:10.595,0.0745550791422526,
1993,1993,8062,2021-09-27 17:22:10.599,0.1388009389241536,
1994,1994,8066,2021-09-27 17:22:10.603,0.300909678141276,
1995,1995,8070,2021-09-27 17:22:10.607,0.2671432495117188,
1996,1996,8074,2021-09-27 17:22:10.611,0.042432149251302,
1997,1997,8078,2021-09-27 17:22:10.615,-0.3696378072102865,
1998,1998,8082,2021-09-27 17:22:10.619,-0.8348973592122397,
1999,1999,8086,2021-09-27 17:22:10.623,-1.0464604695638022,
2000,2000,8090,2021-09-27 17:22:10.627,-1.091283162434896,
2001,2001,8094,2021-09-27 17:22:10.631,-0.8501370747884116,
2002,2002,8098,2021-09-27 17:22:10.635,-0.5265172322591146,
2003,2003,8102,2021-09-27 17:22:10.639,-0.3336302439371745,
2004,2004,8106,2021-09-27 17:22:10.643,-0.1423867543538411,
2005,2005,8110,2021-09-27 17:22:10.647,-0.1156425476074218,
2006,2006,8114,2021-09-27 17:22:10.651,-0.071118672688802,
2007,2007,8118,2021-09-27 17:22:10.655,-0.0388463338216145,
2008,2008,8122,2021-09-27 17:22:10.659,-0.0848642985026041,
2009,2009,8126,2021-09-27 17:22:10.663,-0.0025399525960286,
2010,2010,8130,2021-09-27 17:22:10.667,-0.0342146555582682,
2011,2011,8134,2021-09-27 17:22:10.671,-0.0478108723958333,
2012,2012,8138,2021-09-27 17:22:10.675,-0.0557295481363932,
2013,2013,8142,2021-09-27 17:22:10.679,-0.1477654774983724,
2014,2014,8146,2021-09-27 17:22:10.683,-0.1196765899658203,
2015,2015,8150,2021-09-27 17:22:10.687,-0.1852671305338541,
2016,2016,8154,2021-09-27 17:22:10.691,-0.1831754048665364,
2017,2017,8158,2021-09-27 17:22:10.695,-0.1565806070963541,
2018,2018,8162,2021-09-27 17:22:10.699,-0.2161947886149088,
2019,2019,8166,2021-09-27 17:22:10.703,-0.1746590932210286,
2020,2020,8170,2021-09-27 17:22:10.707,-0.2335262298583984,
2021,2021,8174,2021-09-27 17:22:10.711,-0.2294921875,
2022,2022,8178,2021-09-27 17:22:10.715,-0.1873588562011719,
2023,2023,8182,2021-09-27 17:22:10.719,-0.2200794219970703,
2024,2024,8186,2021-09-27 17:22:10.723,-0.1698780059814453,
2025,2025,8190,2021-09-27 17:22:10.727,-0.2457777659098307,
2026,2026,8194,2021-09-27 17:22:10.731,-0.2596728006998698,
2027,2027,8198,2021-09-27 17:22:10.735,-0.2338250478108724,
2028,2028,8202,2021-09-27 17:22:10.739,-0.2565352121988932,
2029,2029,8206,2021-09-27 17:22:10.743,-0.1851177215576172,
2030,2030,8210,2021-09-27 17:22:10.747,-0.2517541249593099,
2031,2031,8214,2021-09-27 17:22:10.751,-0.2693843841552735,
2032,2032,8218,2021-09-27 17:22:10.755,-0.2429389953613281,
2033,2033,8222,2021-09-27 17:22:10.759,-0.2625115712483724,
2034,2034,8226,2021-09-27 17:22:10.763,-0.1873588562011719,
2035,2035,8230,2021-09-27 17:22:10.767,-0.2408472696940104,
2036,2036,8234,2021-09-27 17:22:10.771,-0.2420425415039062,
2037,2037,8238,2021-09-27 17:22:10.775,-0.2103678385416666,
2038,2038,8242,2021-09-27 17:22:10.779,-0.2362155914306641,
2039,2039,8246,2021-09-27 17:22:10.783,-0.157925287882487,
2040,2040,8250,2021-09-27 17:22:10.787,-0.2027479807535807,
2041,2041,8254,2021-09-27 17:22:10.791,-0.208276112874349,
2042,2042,8258,2021-09-27 17:22:10.795,-0.1984151204427083,
2043,2043,8262,2021-09-27 17:22:10.799,-0.2596728006998698,
2044,2044,8266,2021-09-27 17:22:10.803,-0.2067820231119791,
