,Unnamed: 0,Tick Time,RTC Time,ECG,marker
0,0,65,2021-09-21 15:18:54.061,0.0364557902018229,
1,1,69,2021-09-21 15:18:54.065,0.2593739827473958,
2,2,73,2021-09-21 15:18:54.069,0.0277900695800781,
3,3,77,2021-09-21 15:18:54.073,-0.2527999877929688,
4,4,81,2021-09-21 15:18:54.077,-0.4222297668457032,
5,5,85,2021-09-21 15:18:54.081,-0.8804670969645183,
6,6,89,2021-09-21 15:18:54.085,-0.8220481872558595,
7,7,93,2021-09-21 15:18:54.089,-0.8934656778971355,
8,8,97,2021-09-21 15:18:54.093,-0.7147725423177084,
9,9,101,2021-09-21 15:18:54.097,-0.3104718526204427,
10,10,105,2021-09-21 15:18:54.101,-0.3165976206461589,
11,11,109,2021-09-21 15:18:54.105,0.0485579172770182,
12,12,113,2021-09-21 15:18:54.109,-0.028537114461263,
13,13,117,2021-09-21 15:18:54.113,-0.078439712524414,
14,14,121,2021-09-21 15:18:54.117,0.0513966878255208,
15,15,125,2021-09-21 15:18:54.121,-0.1985645294189453,
16,16,129,2021-09-21 15:18:54.125,0.0170326232910156,
17,17,133,2021-09-21 15:18:54.129,-0.1269976298014323,
18,18,137,2021-09-21 15:18:54.133,-0.1727167765299479,
19,19,141,2021-09-21 15:18:54.137,-0.0579706827799479,
20,20,145,2021-09-21 15:18:54.141,-0.3065872192382813,
21,21,149,2021-09-21 15:18:54.145,-0.0805314381917317,
22,22,153,2021-09-21 15:18:54.149,-0.2063337961832682,
23,23,157,2021-09-21 15:18:54.153,-0.2384567260742187,
24,24,161,2021-09-21 15:18:54.157,-0.1053333282470703,
25,25,165,2021-09-21 15:18:54.161,-0.3500652313232422,
26,26,169,2021-09-21 15:18:54.165,-0.1241588592529297,
27,27,173,2021-09-21 15:18:54.169,-0.236663818359375,
28,28,177,2021-09-21 15:18:54.173,-0.2499612172444661,
29,29,181,2021-09-21 15:18:54.177,-0.1107120513916015,
30,30,185,2021-09-21 15:18:54.181,-0.3576850891113282,
31,31,189,2021-09-21 15:18:54.185,-0.135962168375651,
32,32,193,2021-09-21 15:18:54.189,-0.2538458506266276,
33,33,197,2021-09-21 15:18:54.193,-0.2831300099690755,
34,34,201,2021-09-21 15:18:54.197,-0.1516501108805338,
35,35,205,2021-09-21 15:18:54.201,-0.3697872161865235,
36,36,209,2021-09-21 15:18:54.205,-0.1243082682291666,
37,37,213,2021-09-21 15:18:54.209,-0.236663818359375,
38,38,217,2021-09-21 15:18:54.213,-0.2587763468424479,
39,39,221,2021-09-21 15:18:54.217,-0.1128037770589192,
40,40,225,2021-09-21 15:18:54.221,-0.3506628672281901,
41,41,229,2021-09-21 15:18:54.225,-0.1210212707519531,
42,42,233,2021-09-21 15:18:54.229,-0.251007080078125,
43,43,237,2021-09-21 15:18:54.233,-0.2737172444661458,
44,44,241,2021-09-21 15:18:54.237,-0.1314798990885416,
45,45,245,2021-09-21 15:18:54.241,-0.3653049468994141,
46,46,249,2021-09-21 15:18:54.245,-0.1311810811360677,
47,47,253,2021-09-21 15:18:54.249,-0.2519035339355469,
48,48,257,2021-09-21 15:18:54.253,-0.272372563680013,
49,49,261,2021-09-21 15:18:54.257,-0.1377550760904948,
50,50,265,2021-09-21 15:18:54.261,-0.3705342610677083,
51,51,269,2021-09-21 15:18:54.265,-0.1317787170410156,
52,52,273,2021-09-21 15:18:54.269,-0.2444330851236979,
53,53,277,2021-09-21 15:18:54.273,-0.2647527058919271,
54,54,281,2021-09-21 15:18:54.277,-0.1263999938964844,
55,55,285,2021-09-21 15:18:54.281,-0.3642590840657552,
56,56,289,2021-09-21 15:18:54.285,-0.1278940836588541,
57,57,293,2021-09-21 15:18:54.289,-0.2447319030761719,
58,58,297,2021-09-21 15:18:54.293,-0.2646032969156901,
59,59,301,2021-09-21 15:18:54.297,-0.1231129964192708,
60,60,305,2021-09-21 15:18:54.301,-0.3570874532063802,
61,61,309,2021-09-21 15:18:54.305,-0.1396973927815755,
62,62,313,2021-09-21 15:18:54.309,-0.2520529429117839,
63,63,317,2021-09-21 15:18:54.313,-0.2605692545572917,
64,64,321,2021-09-21 15:18:54.317,-0.1105626424153645,
65,65,325,2021-09-21 15:18:54.321,-0.3502146402994792,
66,66,329,2021-09-21 15:18:54.325,-0.1172860463460286,
67,67,333,2021-09-21 15:18:54.329,-0.2384567260742187,
68,68,337,2021-09-21 15:18:54.333,-0.2640056610107422,
69,69,341,2021-09-21 15:18:54.337,-0.1246070861816406,
70,70,345,2021-09-21 15:18:54.341,-0.3581333160400391,
71,71,349,2021-09-21 15:18:54.345,-0.1401456197102864,
72,72,353,2021-09-21 15:18:54.349,-0.2427895863850911,
73,73,357,2021-09-21 15:18:54.353,-0.2538458506266276,
74,74,361,2021-09-21 15:18:54.357,-0.1169872283935547,
75,75,365,2021-09-21 15:18:54.361,-0.3387101491292318,
76,76,369,2021-09-21 15:18:54.365,-0.1114590962727864,
77,77,373,2021-09-21 15:18:54.369,-0.2175394694010416,
78,78,377,2021-09-21 15:18:54.373,-0.2309862772623698,
79,79,381,2021-09-21 15:18:54.377,-0.0956217447916666,
80,80,385,2021-09-21 15:18:54.381,-0.3270562489827474,
81,81,389,2021-09-21 15:18:54.385,-0.11474609375,
82,82,393,2021-09-21 15:18:54.389,-0.2390543619791666,
83,83,397,2021-09-21 15:18:54.393,-0.2643044789632162,
84,84,401,2021-09-21 15:18:54.397,-0.1284917195638021,
85,85,405,2021-09-21 15:18:54.401,-0.3505134582519532,
86,86,409,2021-09-21 15:18:54.405,-0.1293881734212239,
87,87,413,2021-09-21 15:18:54.409,-0.2495129903157552,
88,88,417,2021-09-21 15:18:54.413,-0.2690855662027995,
89,89,421,2021-09-21 15:18:54.417,-0.1286411285400391,
90,90,425,2021-09-21 15:18:54.421,-0.3490193684895833,
91,91,429,2021-09-21 15:18:54.425,-0.1044368743896484,
92,92,433,2021-09-21 15:18:54.429,-0.2312850952148437,
93,93,437,2021-09-21 15:18:54.433,-0.2604198455810547,
94,94,441,2021-09-21 15:18:54.437,-0.1316293080647786,
95,95,445,2021-09-21 15:18:54.441,-0.3718789418538412,
96,96,449,2021-09-21 15:18:54.445,-0.1314798990885416,
97,97,453,2021-09-21 15:18:54.449,-0.24383544921875,
98,98,457,2021-09-21 15:18:54.453,-0.2538458506266276,
99,99,461,2021-09-21 15:18:54.457,-0.1162401835123698,
100,100,465,2021-09-21 15:18:54.461,-0.3572368621826172,
101,101,469,2021-09-21 15:18:54.465,-0.1190789540608724,
102,102,473,2021-09-21 15:18:54.469,-0.2387555440266927,
103,103,477,2021-09-21 15:18:54.473,-0.2659479777018229,
104,104,481,2021-09-21 15:18:54.477,-0.1350657145182291,
105,105,485,2021-09-21 15:18:54.481,-0.3745683034261068,
106,106,489,2021-09-21 15:18:54.485,-0.1402950286865234,
107,107,493,2021-09-21 15:18:54.489,-0.2541446685791016,
108,108,497,2021-09-21 15:18:54.493,-0.2770042419433594,
109,109,501,2021-09-21 15:18:54.497,-0.1443290710449219,
110,110,505,2021-09-21 15:18:54.501,-0.3627649943033854,
111,111,509,2021-09-21 15:18:54.505,-0.1026439666748047,
112,112,513,2021-09-21 15:18:54.509,-0.2090231577555338,
113,113,517,2021-09-21 15:18:54.513,-0.222320556640625,
114,114,521,2021-09-21 15:18:54.517,-0.0793361663818359,
115,115,525,2021-09-21 15:18:54.521,-0.3415489196777344,
116,116,529,2021-09-21 15:18:54.525,-0.1207224527994791,
117,117,533,2021-09-21 15:18:54.529,-0.2230676015218099,
118,118,537,2021-09-21 15:18:54.533,-0.2348709106445312,
119,119,541,2021-09-21 15:18:54.537,-0.1026439666748047,
120,120,545,2021-09-21 15:18:54.541,-0.3709824879964193,
121,121,549,2021-09-21 15:18:54.545,-0.143133799235026,
122,122,553,2021-09-21 15:18:54.549,-0.2677408854166667,
123,123,557,2021-09-21 15:18:54.553,-0.2852217356363932,
124,124,561,2021-09-21 15:18:54.557,-0.1353645324707031,
125,125,565,2021-09-21 15:18:54.561,-0.3753153483072917,
126,126,569,2021-09-21 15:18:54.565,-0.121320088704427,
127,127,573,2021-09-21 15:18:54.569,-0.236962636311849,
128,128,577,2021-09-21 15:18:54.573,-0.2499612172444661,
129,129,581,2021-09-21 15:18:54.577,-0.0950241088867187,
130,130,585,2021-09-21 15:18:54.581,-0.3570874532063802,
131,131,589,2021-09-21 15:18:54.585,-0.1331233978271484,
132,132,593,2021-09-21 15:18:54.589,-0.2811876932779948,
133,133,597,2021-09-21 15:18:54.593,-0.3079319000244141,
134,134,601,2021-09-21 15:18:54.597,-0.1084709167480468,
135,135,605,2021-09-21 15:18:54.601,-0.2557881673177083,
136,136,609,2021-09-21 15:18:54.605,0.1184813181559245,
137,137,613,2021-09-21 15:18:54.609,0.1243082682291666,
138,138,617,2021-09-21 15:18:54.613,0.1462713877360026,
139,139,621,2021-09-21 15:18:54.617,0.207827885945638,
140,140,625,2021-09-21 15:18:54.621,-0.2680397033691407,
141,141,629,2021-09-21 15:18:54.625,-0.3476746877034505,
142,142,633,2021-09-21 15:18:54.629,-0.7294146219889324,
143,143,637,2021-09-21 15:18:54.633,-0.9391848246256512,
144,144,641,2021-09-21 15:18:54.637,-0.8286221822102866,
145,145,645,2021-09-21 15:18:54.641,-0.8819611867268882,
146,146,649,2021-09-21 15:18:54.645,-0.3851763407389323,
147,147,653,2021-09-21 15:18:54.649,-0.229641596476237,
148,148,657,2021-09-21 15:18:54.653,-0.0851631164550781,
149,149,661,2021-09-21 15:18:54.657,0.1126543680826823,
150,150,665,2021-09-21 15:18:54.661,-0.1331233978271484,
151,151,669,2021-09-21 15:18:54.665,0.0860595703125,
152,152,673,2021-09-21 15:18:54.669,-0.0691763559977213,
153,153,677,2021-09-21 15:18:54.673,-0.1114590962727864,
154,154,681,2021-09-21 15:18:54.677,0.0245030721028645,
155,155,685,2021-09-21 15:18:54.681,-0.2569834391276042,
156,156,689,2021-09-21 15:18:54.685,-0.0294335683186848,
157,157,693,2021-09-21 15:18:54.689,-0.1830259958902995,
158,158,697,2021-09-21 15:18:54.693,-0.2312850952148437,
159,159,701,2021-09-21 15:18:54.697,-0.0953229268391927,
160,160,705,2021-09-21 15:18:54.701,-0.3602250417073568,
161,161,709,2021-09-21 15:18:54.705,-0.1039886474609375,
162,162,713,2021-09-21 15:18:54.709,-0.2321815490722656,
163,163,717,2021-09-21 15:18:54.713,-0.2692349751790365,
164,164,721,2021-09-21 15:18:54.717,-0.1250553131103516,
165,165,725,2021-09-21 15:18:54.721,-0.3775564829508464,
166,166,729,2021-09-21 15:18:54.725,-0.1171366373697916,
167,167,733,2021-09-21 15:18:54.729,-0.2421919504801432,
168,168,737,2021-09-21 15:18:54.733,-0.2693843841552735,
169,169,741,2021-09-21 15:18:54.737,-0.1241588592529297,
170,170,745,2021-09-21 15:18:54.741,-0.3850269317626953,
171,171,749,2021-09-21 15:18:54.745,-0.1410420735677083,
172,172,753,2021-09-21 15:18:54.749,-0.2590751647949219,
173,173,757,2021-09-21 15:18:54.753,-0.272671381632487,
174,174,761,2021-09-21 15:18:54.757,-0.1080226898193359,
175,175,765,2021-09-21 15:18:54.761,-0.3597768147786458,
176,176,769,2021-09-21 15:18:54.765,-0.1156425476074218,
177,177,773,2021-09-21 15:18:54.769,-0.2495129903157552,
178,178,777,2021-09-21 15:18:54.773,-0.2762571970621745,
179,179,781,2021-09-21 15:18:54.777,-0.1199754079182942,
180,180,785,2021-09-21 15:18:54.781,-0.3729248046875,
181,181,789,2021-09-21 15:18:54.785,-0.1184813181559245,
182,182,793,2021-09-21 15:18:54.789,-0.2472718556722005,
183,183,797,2021-09-21 15:18:54.793,-0.2743148803710938,
184,184,801,2021-09-21 15:18:54.797,-0.1271470387776692,
185,185,805,2021-09-21 15:18:54.801,-0.3790505727132162,
186,186,809,2021-09-21 15:18:54.805,-0.1201248168945312,
187,187,813,2021-09-21 15:18:54.809,-0.2466742197672526,
188,188,817,2021-09-21 15:18:54.813,-0.2711772918701172,
189,189,821,2021-09-21 15:18:54.817,-0.1190789540608724,
190,190,825,2021-09-21 15:18:54.821,-0.373373031616211,
191,191,829,2021-09-21 15:18:54.825,-0.1241588592529297,
192,192,833,2021-09-21 15:18:54.829,-0.2480189005533854,
193,193,837,2021-09-21 15:18:54.833,-0.2613162994384766,
194,194,841,2021-09-21 15:18:54.837,-0.1108614603678385,
195,195,845,2021-09-21 15:18:54.841,-0.3609720865885417,
196,196,849,2021-09-21 15:18:54.845,-0.1107120513916015,
197,197,853,2021-09-21 15:18:54.849,-0.2423413594563802,
198,198,857,2021-09-21 15:18:54.853,-0.2761077880859375,
199,199,861,2021-09-21 15:18:54.857,-0.1332728068033854,
200,200,865,2021-09-21 15:18:54.861,-0.3796482086181641,
201,201,869,2021-09-21 15:18:54.865,-0.1235612233479817,
202,202,873,2021-09-21 15:18:54.869,-0.2409966786702474,
203,203,877,2021-09-21 15:18:54.873,-0.2626609802246094,
204,204,881,2021-09-21 15:18:54.877,-0.1169872283935547,
205,205,885,2021-09-21 15:18:54.881,-0.3630638122558594,
206,206,889,2021-09-21 15:18:54.885,-0.1123555501302083,
207,207,893,2021-09-21 15:18:54.889,-0.2241134643554687,
208,208,897,2021-09-21 15:18:54.893,-0.2448813120524088,
209,209,901,2021-09-21 15:18:54.897,-0.100552241007487,
210,210,905,2021-09-21 15:18:54.901,-0.3437900543212891,
211,211,909,2021-09-21 15:18:54.905,-0.0938288370768229,
212,212,913,2021-09-21 15:18:54.909,-0.2205276489257812,
213,213,917,2021-09-21 15:18:54.913,-0.2505588531494141,
214,214,921,2021-09-21 15:18:54.917,-0.100552241007487,
215,215,925,2021-09-21 15:18:54.921,-0.3542486826578776,
216,216,929,2021-09-21 15:18:54.925,-0.0990581512451172,
217,217,933,2021-09-21 15:18:54.929,-0.2324803670247396,
218,218,937,2021-09-21 15:18:54.933,-0.2684879302978516,
219,219,941,2021-09-21 15:18:54.937,-0.1195271809895833,
220,220,945,2021-09-21 15:18:54.941,-0.3739706675211589,
221,221,949,2021-09-21 15:18:54.945,-0.1207224527994791,
222,222,953,2021-09-21 15:18:54.949,-0.2502600351969401,
223,223,957,2021-09-21 15:18:54.953,-0.2740160624186198,
224,224,961,2021-09-21 15:18:54.957,-0.1189295450846354,
225,225,965,2021-09-21 15:18:54.961,-0.3747177124023438,
226,226,969,2021-09-21 15:18:54.965,-0.1286411285400391,
227,227,973,2021-09-21 15:18:54.969,-0.2517541249593099,
228,228,977,2021-09-21 15:18:54.973,-0.2805900573730469,
229,229,981,2021-09-21 15:18:54.977,-0.106976826985677,
230,230,985,2021-09-21 15:18:54.981,-0.3542486826578776,
231,231,989,2021-09-21 15:18:54.985,-0.1029427846272786,
232,232,993,2021-09-21 15:18:54.989,-0.2389049530029297,
233,233,997,2021-09-21 15:18:54.993,-0.2810382843017578,
234,234,1001,2021-09-21 15:18:54.997,-0.1153437296549479,
235,235,1005,2021-09-21 15:18:55.001,-0.3639602661132813,
236,236,1009,2021-09-21 15:18:55.005,-0.1045862833658854,
237,237,1013,2021-09-21 15:18:55.009,-0.236962636311849,
238,238,1017,2021-09-21 15:18:55.013,-0.2888075510660807,
239,239,1021,2021-09-21 15:18:55.017,-0.1271470387776692,
240,240,1025,2021-09-21 15:18:55.021,-0.3645579020182292,
241,241,1029,2021-09-21 15:18:55.025,-0.1017475128173828,
242,242,1033,2021-09-21 15:18:55.029,-0.2348709106445312,
243,243,1037,2021-09-21 15:18:55.033,-0.4219309488932292,
244,244,1041,2021-09-21 15:18:55.037,-0.1172860463460286,
245,245,1045,2021-09-21 15:18:55.041,-0.2874628702799479,
246,246,1049,2021-09-21 15:18:55.045,-0.1225153605143229,
247,247,1053,2021-09-21 15:18:55.049,-0.121320088704427,
248,248,1057,2021-09-21 15:18:55.053,-0.3168964385986328,
249,249,1061,2021-09-21 15:18:55.057,-0.071417490641276,
250,250,1065,2021-09-21 15:18:55.061,-0.308230717976888,
251,251,1069,2021-09-21 15:18:55.065,-0.1534430185953776,
252,252,1073,2021-09-21 15:18:55.069,-0.1382033030192057,
253,253,1077,2021-09-21 15:18:55.073,-0.3197352091471354,
254,254,1081,2021-09-21 15:18:55.077,-0.0773938496907552,
255,255,1085,2021-09-21 15:18:55.081,-0.3206316630045573,
256,256,1089,2021-09-21 15:18:55.085,-0.1951281229654948,
257,257,1093,2021-09-21 15:18:55.089,-0.2039432525634766,
258,258,1097,2021-09-21 15:18:55.093,-0.3826363881429037,
259,259,1101,2021-09-21 15:18:55.097,-0.1293881734212239,
260,260,1105,2021-09-21 15:18:55.101,-0.3479735056559245,
261,261,1109,2021-09-21 15:18:55.105,-0.2003574371337891,
262,262,1113,2021-09-21 15:18:55.109,-0.179440180460612,
263,263,1117,2021-09-21 15:18:55.113,-0.3427441914876302,
264,264,1121,2021-09-21 15:18:55.117,-0.0957711537679036,
265,265,1125,2021-09-21 15:18:55.121,-0.3134600321451823,
266,266,1129,2021-09-21 15:18:55.125,-0.164798100789388,
267,267,1133,2021-09-21 15:18:55.129,-0.1392491658528646,
268,268,1137,2021-09-21 15:18:55.133,-0.3027025858561198,
269,269,1141,2021-09-21 15:18:55.137,-0.0600624084472656,
270,270,1145,2021-09-21 15:18:55.141,-0.3330326080322266,
271,271,1149,2021-09-21 15:18:55.145,-0.2169418334960937,
272,272,1153,2021-09-21 15:18:55.149,-0.1783943176269531,
273,273,1157,2021-09-21 15:18:55.153,-0.2628103892008464,
274,274,1161,2021-09-21 15:18:55.157,0.1172860463460286,
275,275,1165,2021-09-21 15:18:55.161,0.0361569722493489,
276,276,1169,2021-09-21 15:18:55.165,0.2348709106445312,
277,277,1173,2021-09-21 15:18:55.169,0.1709238688151041,
278,278,1177,2021-09-21 15:18:55.173,-0.2303886413574219,
279,279,1181,2021-09-21 15:18:55.177,-0.2882099151611328,
280,280,1185,2021-09-21 15:18:55.181,-0.7637786865234376,
281,281,1189,2021-09-21 15:18:55.185,-0.8174165089925132,
282,282,1193,2021-09-21 15:18:55.189,-0.8703072865804038,
283,283,1197,2021-09-21 15:18:55.193,-0.9249909718831382,
284,284,1201,2021-09-21 15:18:55.197,-0.581051508585612,
285,285,1205,2021-09-21 15:18:55.201,-0.5177021026611329,
286,286,1209,2021-09-21 15:18:55.205,-0.063947041829427,
287,287,1213,2021-09-21 15:18:55.209,0.1501560211181641,
288,288,1217,2021-09-21 15:18:55.213,0.0252501169840494,
289,289,1221,2021-09-21 15:18:55.217,0.208126703898112,
290,290,1225,2021-09-21 15:18:55.221,-0.0838184356689453,
291,291,1229,2021-09-21 15:18:55.225,-0.0113550821940104,
292,292,1233,2021-09-21 15:18:55.229,-0.0415356953938802,
293,293,1237,2021-09-21 15:18:55.233,-0.2158959706624349,
294,294,1241,2021-09-21 15:18:55.237,0.0182278951009114,
295,295,1245,2021-09-21 15:18:55.241,-0.2401002248128255,
296,296,1249,2021-09-21 15:18:55.245,-0.1458231608072916,
297,297,1253,2021-09-21 15:18:55.249,-0.1879564921061198,
298,298,1257,2021-09-21 15:18:55.253,-0.4223791758219402,
299,299,1261,2021-09-21 15:18:55.257,-0.1546382904052734,
300,300,1265,2021-09-21 15:18:55.261,-0.3173446655273438,
301,301,1269,2021-09-21 15:18:55.265,-0.1059309641520182,
302,302,1273,2021-09-21 15:18:55.269,-0.0815773010253906,
303,303,1277,2021-09-21 15:18:55.273,-0.2731196085611979,
304,304,1281,2021-09-21 15:18:55.277,-0.0409380594889322,
305,305,1285,2021-09-21 15:18:55.281,-0.3038978576660157,
306,306,1289,2021-09-21 15:18:55.285,-0.171969731648763,
307,307,1293,2021-09-21 15:18:55.289,-0.1728661855061849,
308,308,1297,2021-09-21 15:18:55.293,-0.3618685404459635,
309,309,1301,2021-09-21 15:18:55.297,-0.1567300160725911,
310,310,1305,2021-09-21 15:18:55.301,-0.3756141662597657,
311,311,1309,2021-09-21 15:18:55.305,-0.2393531799316406,
312,312,1313,2021-09-21 15:18:55.309,-0.222320556640625,
313,313,1317,2021-09-21 15:18:55.313,-0.3778553009033203,
314,314,1321,2021-09-21 15:18:55.317,-0.1296869913736979,
315,315,1325,2021-09-21 15:18:55.321,-0.3089777628580729,
316,316,1329,2021-09-21 15:18:55.325,-0.1798884073893229,
317,317,1333,2021-09-21 15:18:55.329,-0.1700274149576823,
318,318,1337,2021-09-21 15:18:55.333,-0.3330326080322266,
319,319,1341,2021-09-21 15:18:55.337,-0.0956217447916666,
320,320,1345,2021-09-21 15:18:55.341,-0.2885087331136068,
321,321,1349,2021-09-21 15:18:55.345,-0.1961739857991536,
322,322,1353,2021-09-21 15:18:55.349,-0.1915423075358073,
323,323,1357,2021-09-21 15:18:55.353,-0.3463300069173177,
324,324,1361,2021-09-21 15:18:55.357,-0.1540406545003255,
325,325,1365,2021-09-21 15:18:55.361,-0.3327337900797526,
326,326,1369,2021-09-21 15:18:55.365,-0.2173900604248047,
327,327,1373,2021-09-21 15:18:55.369,-0.1849683125813802,
328,328,1377,2021-09-21 15:18:55.373,-0.2919451395670573,
329,329,1381,2021-09-21 15:18:55.377,-0.1041380564371745,
330,330,1385,2021-09-21 15:18:55.381,-0.3198846181233724,
331,331,1389,2021-09-21 15:18:55.385,-0.2456283569335937,
332,332,1393,2021-09-21 15:18:55.389,-0.222021738688151,
333,333,1397,2021-09-21 15:18:55.393,-0.3408018747965495,
334,334,1401,2021-09-21 15:18:55.397,-0.1413408915201823,
335,335,1405,2021-09-21 15:18:55.401,-0.2932898203531901,
336,336,1409,2021-09-21 15:18:55.405,-0.1716709136962891,
337,337,1413,2021-09-21 15:18:55.409,-0.1671886444091797,
338,338,1417,2021-09-21 15:18:55.413,-0.3316879272460938,
339,339,1421,2021-09-21 15:18:55.417,-0.1624075571695963,
340,340,1425,2021-09-21 15:18:55.421,-0.3275044759114583,
341,341,1429,2021-09-21 15:18:55.425,-0.1891517639160156,
342,342,1433,2021-09-21 15:18:55.429,-0.1341692606608073,
343,343,1437,2021-09-21 15:18:55.433,-0.2640056610107422,
344,344,1441,2021-09-21 15:18:55.437,-0.0868066151936849,
345,345,1445,2021-09-21 15:18:55.441,-0.2660973866780599,
346,346,1449,2021-09-21 15:18:55.445,-0.1396973927815755,
347,347,1453,2021-09-21 15:18:55.449,-0.1175848642985026,
348,348,1457,2021-09-21 15:18:55.453,-0.2750619252522787,
349,349,1461,2021-09-21 15:18:55.457,-0.0754515329996744,
350,350,1465,2021-09-21 15:18:55.461,-0.2683385213216146,
351,351,1469,2021-09-21 15:18:55.465,-0.1558335622151692,
352,352,1473,2021-09-21 15:18:55.469,-0.1522477467854817,
353,353,1477,2021-09-21 15:18:55.473,-0.3174940745035807,
354,354,1481,2021-09-21 15:18:55.477,-0.121469497680664,
355,355,1485,2021-09-21 15:18:55.481,-0.3400548299153646,
356,356,1489,2021-09-21 15:18:55.485,-0.2072302500406901,
357,357,1493,2021-09-21 15:18:55.489,-0.1800378163655599,
358,358,1497,2021-09-21 15:18:55.493,-0.3269068400065104,
359,359,1501,2021-09-21 15:18:55.497,-0.0869560241699218,
360,360,1505,2021-09-21 15:18:55.501,-0.3210798899332682,
361,361,1509,2021-09-21 15:18:55.505,-0.2959791819254557,
362,362,1513,2021-09-21 15:18:55.509,-0.301357905069987,
363,363,1517,2021-09-21 15:18:55.513,-0.3902562459309896,
364,364,1521,2021-09-21 15:18:55.517,-0.0605106353759765,
365,365,1525,2021-09-21 15:18:55.521,-0.229791005452474,
366,366,1529,2021-09-21 15:18:55.525,-0.1068274180094401,
367,367,1533,2021-09-21 15:18:55.529,-0.1231129964192708,
368,368,1537,2021-09-21 15:18:55.533,-0.3110694885253907,
369,369,1541,2021-09-21 15:18:55.537,-0.0764973958333333,
370,370,1545,2021-09-21 15:18:55.541,-0.2928415934244792,
371,371,1549,2021-09-21 15:18:55.545,-0.1760037740071614,
372,372,1553,2021-09-21 15:18:55.549,-0.1918411254882812,
373,373,1557,2021-09-21 15:18:55.553,-0.3709824879964193,
374,374,1561,2021-09-21 15:18:55.557,-0.1444784800211588,
375,375,1565,2021-09-21 15:18:55.561,-0.3639602661132813,
376,376,1569,2021-09-21 15:18:55.565,-0.2290439605712891,
377,377,1573,2021-09-21 15:18:55.569,-0.2017021179199219,
378,378,1577,2021-09-21 15:18:55.573,-0.3548463185628255,
379,379,1581,2021-09-21 15:18:55.577,-0.1104132334391276,
380,380,1585,2021-09-21 15:18:55.581,-0.3095753987630208,
381,381,1589,2021-09-21 15:18:55.585,-0.1544888814290364,
382,382,1593,2021-09-21 15:18:55.589,-0.1243082682291666,
383,383,1597,2021-09-21 15:18:55.593,-0.2949333190917969,
384,384,1601,2021-09-21 15:18:55.597,-0.0738080342610677,
385,385,1605,2021-09-21 15:18:55.601,-0.2874628702799479,
386,386,1609,2021-09-21 15:18:55.605,-0.1597181955973307,
387,387,1613,2021-09-21 15:18:55.609,-0.1437314351399739,
388,388,1617,2021-09-21 15:18:55.613,-0.3257115681966146,
389,389,1621,2021-09-21 15:18:55.617,-0.1159413655598958,
390,390,1625,2021-09-21 15:18:55.621,-0.3278032938639323,
391,391,1629,2021-09-21 15:18:55.625,-0.1830259958902995,
392,392,1633,2021-09-21 15:18:55.629,-0.1622581481933594,
393,393,1637,2021-09-21 15:18:55.633,-0.3405030568440755,
394,394,1641,2021-09-21 15:18:55.637,-0.1180330912272135,
395,395,1645,2021-09-21 15:18:55.641,-0.3201834360758464,
396,396,1649,2021-09-21 15:18:55.645,-0.1942316691080729,
397,397,1653,2021-09-21 15:18:55.649,-0.1897493998209635,
398,398,1657,2021-09-21 15:18:55.653,-0.365603764851888,
399,399,1661,2021-09-21 15:18:55.657,-0.1426855723063151,
400,400,1665,2021-09-21 15:18:55.661,-0.3409512837727865,
401,401,1669,2021-09-21 15:18:55.665,-0.2142524719238281,
402,402,1673,2021-09-21 15:18:55.669,-0.1806354522705078,
403,403,1677,2021-09-21 15:18:55.673,-0.3254127502441407,
404,404,1681,2021-09-21 15:18:55.677,-0.10040283203125,
405,405,1685,2021-09-21 15:18:55.681,-0.2888075510660807,
406,406,1689,2021-09-21 15:18:55.685,-0.1277446746826172,
407,407,1693,2021-09-21 15:18:55.689,-0.1029427846272786,
408,408,1697,2021-09-21 15:18:55.693,-0.2853711446126302,
409,409,1701,2021-09-21 15:18:55.697,-0.0794855753580729,
410,410,1705,2021-09-21 15:18:55.701,-0.3272056579589844,
411,411,1709,2021-09-21 15:18:55.705,-0.2311356862386068,
412,412,1713,2021-09-21 15:18:55.709,-0.2184359232584635,
413,413,1717,2021-09-21 15:18:55.713,-0.3448359171549479,
414,414,1721,2021-09-21 15:18:55.717,-0.0109068552652994,
415,415,1725,2021-09-21 15:18:55.721,-0.078439712524414,
416,416,1729,2021-09-21 15:18:55.725,0.1727167765299479,
417,417,1733,2021-09-21 15:18:55.729,0.2536964416503907,
418,418,1737,2021-09-21 15:18:55.733,0.0153891245524088,
419,419,1741,2021-09-21 15:18:55.737,0.0080680847167968,
420,420,1745,2021-09-21 15:18:55.741,-0.5226325988769532,
421,421,1749,2021-09-21 15:18:55.745,-0.688775380452474,
422,422,1753,2021-09-21 15:18:55.749,-0.8516311645507814,
423,423,1757,2021-09-21 15:18:55.753,-1.0501956939697268,
424,424,1761,2021-09-21 15:18:55.757,-0.6807072957356771,
425,425,1765,2021-09-21 15:18:55.761,-0.5898666381835939,
426,426,1769,2021-09-21 15:18:55.765,-0.1764520009358724,
427,427,1773,2021-09-21 15:18:55.769,0.0274912516276041,
428,428,1777,2021-09-21 15:18:55.773,-0.0893465677897135,
429,429,1781,2021-09-21 15:18:55.777,0.1252047220865885,
430,430,1785,2021-09-21 15:18:55.781,-0.1210212707519531,
431,431,1789,2021-09-21 15:18:55.785,-0.0297323862711588,
432,432,1793,2021-09-21 15:18:55.789,-0.0134468078613281,
433,433,1797,2021-09-21 15:18:55.793,-0.2042420705159505,
434,434,1801,2021-09-21 15:18:55.797,-0.0104586283365885,
435,435,1805,2021-09-21 15:18:55.801,-0.2569834391276042,
436,436,1809,2021-09-21 15:18:55.805,-0.1479148864746094,
437,437,1813,2021-09-21 15:18:55.809,-0.1444784800211588,
438,438,1817,2021-09-21 15:18:55.813,-0.3239186604817708,
439,439,1821,2021-09-21 15:18:55.817,-0.0963687896728515,
440,440,1825,2021-09-21 15:18:55.821,-0.3007602691650391,
441,441,1829,2021-09-21 15:18:55.825,-0.1562817891438802,
442,442,1833,2021-09-21 15:18:55.829,-0.1317787170410156,
443,443,1837,2021-09-21 15:18:55.833,-0.3128623962402344,
444,444,1841,2021-09-21 15:18:55.837,-0.0978628794352213,
445,445,1845,2021-09-21 15:18:55.841,-0.3136094411214193,
446,446,1849,2021-09-21 15:18:55.845,-0.1966222127278646,
447,447,1853,2021-09-21 15:18:55.849,-0.1742108662923177,
448,448,1857,2021-09-21 15:18:55.853,-0.3186893463134766,
449,449,1861,2021-09-21 15:18:55.857,-0.0877030690511067,
450,450,1865,2021-09-21 15:18:55.861,-0.2994155883789063,
451,451,1869,2021-09-21 15:18:55.865,-0.2109654744466146,
452,452,1873,2021-09-21 15:18:55.869,-0.2111148834228516,
453,453,1877,2021-09-21 15:18:55.873,-0.3666496276855469,
454,454,1881,2021-09-21 15:18:55.877,-0.1332728068033854,
455,455,1885,2021-09-21 15:18:55.881,-0.3118165334065755,
456,456,1889,2021-09-21 15:18:55.885,-0.1942316691080729,
457,457,1893,2021-09-21 15:18:55.889,-0.1776472727457682,
458,458,1897,2021-09-21 15:18:55.893,-0.3436406453450521,
459,459,1901,2021-09-21 15:18:55.897,-0.1238600413004557,
460,460,1905,2021-09-21 15:18:55.901,-0.3148047129313151,
461,461,1909,2021-09-21 15:18:55.905,-0.1843706766764323,
462,462,1913,2021-09-21 15:18:55.909,-0.1689815521240234,
463,463,1917,2021-09-21 15:18:55.913,-0.3306420644124349,
464,464,1921,2021-09-21 15:18:55.917,-0.1056321461995442,
465,465,1925,2021-09-21 15:18:55.921,-0.3131612141927083,
466,466,1929,2021-09-21 15:18:55.925,-0.1893011728922526,
467,467,1933,2021-09-21 15:18:55.929,-0.1630051930745442,
468,468,1937,2021-09-21 15:18:55.933,-0.3161493937174479,
469,469,1941,2021-09-21 15:18:55.937,-0.0986099243164062,
470,470,1945,2021-09-21 15:18:55.941,-0.3218269348144532,
471,471,1949,2021-09-21 15:18:55.945,-0.2167924245198568,
472,472,1953,2021-09-21 15:18:55.949,-0.2020009358723958,
473,473,1957,2021-09-21 15:18:55.953,-0.3561909993489583,
474,474,1961,2021-09-21 15:18:55.957,-0.1086203257242838,
475,475,1965,2021-09-21 15:18:55.961,-0.2952321370442708,
476,476,1969,2021-09-21 15:18:55.965,-0.1879564921061198,
477,477,1973,2021-09-21 15:18:55.969,-0.1818307240804036,
478,478,1977,2021-09-21 15:18:55.973,-0.3387101491292318,
479,479,1981,2021-09-21 15:18:55.977,-0.1062297821044922,
480,480,1985,2021-09-21 15:18:55.981,-0.3110694885253907,
481,481,1989,2021-09-21 15:18:55.985,-0.2022997538248698,
482,482,1993,2021-09-21 15:18:55.989,-0.1901976267496745,
483,483,1997,2021-09-21 15:18:55.993,-0.3355725606282552,
484,484,2001,2021-09-21 15:18:55.997,-0.0920359293619791,
485,485,2005,2021-09-21 15:18:56.001,-0.2949333190917969,
486,486,2009,2021-09-21 15:18:56.005,-0.1773484547932942,
487,487,2013,2021-09-21 15:18:56.009,-0.1497077941894531,
488,488,2017,2021-09-21 15:18:56.013,-0.2849229176839193,
489,489,2021,2021-09-21 15:18:56.017,-0.0888983408610026,
490,490,2025,2021-09-21 15:18:56.021,-0.4210344950358073,
491,491,2029,2021-09-21 15:18:56.025,-0.3071848551432292,
492,492,2033,2021-09-21 15:18:56.029,-0.1876576741536458,
493,493,2037,2021-09-21 15:18:56.033,-0.3437900543212891,
494,494,2041,2021-09-21 15:18:56.037,-0.0135962168375651,
495,495,2045,2021-09-21 15:18:56.041,-0.0818761189778645,
496,496,2049,2021-09-21 15:18:56.045,-0.1385021209716797,
497,497,2053,2021-09-21 15:18:56.049,-0.0521437327067057,
498,498,2057,2021-09-21 15:18:56.053,-0.3189881642659505,
499,499,2061,2021-09-21 15:18:56.057,-0.1021957397460937,
500,500,2065,2021-09-21 15:18:56.061,-0.2409966786702474,
501,501,2069,2021-09-21 15:18:56.065,-0.2998638153076172,
502,502,2073,2021-09-21 15:18:56.069,-0.1710732777913411,
503,503,2077,2021-09-21 15:18:56.073,-0.3954855600992839,
504,504,2081,2021-09-21 15:18:56.077,-0.1607640584309896,
505,505,2085,2021-09-21 15:18:56.081,-0.2732690175374349,
506,506,2089,2021-09-21 15:18:56.085,-0.2980709075927735,
507,507,2093,2021-09-21 15:18:56.089,-0.1456737518310547,
508,508,2097,2021-09-21 15:18:56.093,-0.380245844523112,
509,509,2101,2021-09-21 15:18:56.097,-0.1370080312093099,
510,510,2105,2021-09-21 15:18:56.101,-0.2244122823079427,
511,511,2109,2021-09-21 15:18:56.105,-0.2427895863850911,
512,512,2113,2021-09-21 15:18:56.109,-0.1060803731282552,
513,513,2117,2021-09-21 15:18:56.113,-0.3479735056559245,
514,514,2121,2021-09-21 15:18:56.117,-0.1341692606608073,
515,515,2125,2021-09-21 15:18:56.121,-0.2457777659098307,
516,516,2129,2021-09-21 15:18:56.125,-0.2484671274820963,
517,517,2133,2021-09-21 15:18:56.129,-0.0871054331461588,
518,518,2137,2021-09-21 15:18:56.133,-0.3315385182698568,
519,519,2141,2021-09-21 15:18:56.137,-0.0965181986490885,
520,520,2145,2021-09-21 15:18:56.141,-0.2202288309733073,
521,521,2149,2021-09-21 15:18:56.145,-0.2695337931315104,
522,522,2153,2021-09-21 15:18:56.149,-0.1480642954508463,
523,523,2157,2021-09-21 15:18:56.153,-0.3981749216715495,
524,524,2161,2021-09-21 15:18:56.157,-0.1550865173339844,
525,525,2165,2021-09-21 15:18:56.161,-0.2575810750325521,
526,526,2169,2021-09-21 15:18:56.165,-0.2816359202067057,
527,527,2173,2021-09-21 15:18:56.169,-0.1193777720133463,
528,528,2177,2021-09-21 15:18:56.173,-0.3506628672281901,
529,529,2181,2021-09-21 15:18:56.177,-0.1295375823974609,
530,530,2185,2021-09-21 15:18:56.181,-0.24383544921875,
531,531,2189,2021-09-21 15:18:56.185,-0.2738666534423828,
532,532,2193,2021-09-21 15:18:56.189,-0.1090685526529948,
533,533,2197,2021-09-21 15:18:56.193,-0.3306420644124349,
534,534,2201,2021-09-21 15:18:56.197,-0.092633565266927,
535,535,2205,2021-09-21 15:18:56.201,-0.215447743733724,
536,536,2209,2021-09-21 15:18:56.205,-0.2560869852701823,
537,537,2213,2021-09-21 15:18:56.209,-0.0836690266927083,
538,538,2217,2021-09-21 15:18:56.213,-0.3236198425292969,
539,539,2221,2021-09-21 15:18:56.217,-0.0978628794352213,
540,540,2225,2021-09-21 15:18:56.221,-0.2563858032226563,
541,541,2229,2021-09-21 15:18:56.225,-0.3121153513590495,
542,542,2233,2021-09-21 15:18:56.229,-0.1628557840983073,
543,543,2237,2021-09-21 15:18:56.233,-0.3924973805745443,
544,544,2241,2021-09-21 15:18:56.237,-0.1131025950113932,
545,545,2245,2021-09-21 15:18:56.241,-0.21514892578125,
546,546,2249,2021-09-21 15:18:56.245,-0.2459271748860677,
547,547,2253,2021-09-21 15:18:56.249,-0.1162401835123698,
548,548,2257,2021-09-21 15:18:56.253,-0.3963820139567058,
549,549,2261,2021-09-21 15:18:56.257,-0.1494089762369791,
550,550,2265,2021-09-21 15:18:56.261,-0.2492141723632812,
551,551,2269,2021-09-21 15:18:56.265,-0.2671432495117188,
552,552,2273,2021-09-21 15:18:56.269,-0.1222165425618489,
553,553,2277,2021-09-21 15:18:56.273,-0.3999678293863933,
554,554,2281,2021-09-21 15:18:56.277,-0.1413408915201823,
555,555,2285,2021-09-21 15:18:56.281,-0.2048397064208984,
556,556,2289,2021-09-21 15:18:56.285,-0.1265494028727213,
557,557,2293,2021-09-21 15:18:56.289,0.1567300160725911,
558,558,2297,2021-09-21 15:18:56.293,0.0074704488118489,
559,559,2301,2021-09-21 15:18:56.297,0.2862675984700521,
560,560,2305,2021-09-21 15:18:56.301,0.0727621714274088,
561,561,2309,2021-09-21 15:18:56.305,-0.2108160654703776,
562,562,2313,2021-09-21 15:18:56.309,-0.3763612111409505,
563,563,2317,2021-09-21 15:18:56.313,-0.8779271443684897,
564,564,2321,2021-09-21 15:18:56.317,-0.7973957061767579,
565,565,2325,2021-09-21 15:18:56.321,-0.904521942138672,
566,566,2329,2021-09-21 15:18:56.325,-0.7649739583333335,
567,567,2333,2021-09-21 15:18:56.329,-0.3496170043945313,
568,568,2337,2021-09-21 15:18:56.333,-0.3591791788736979,
569,569,2341,2021-09-21 15:18:56.337,0.0539366404215494,
570,570,2345,2021-09-21 15:18:56.341,-0.0171820322672526,
571,571,2349,2021-09-21 15:18:56.345,-0.0630505879720052,
572,572,2353,2021-09-21 15:18:56.349,0.0566260019938151,
573,573,2357,2021-09-21 15:18:56.353,-0.236962636311849,
574,574,2361,2021-09-21 15:18:56.357,0.0173314412434895,
575,575,2365,2021-09-21 15:18:56.361,-0.1153437296549479,
576,576,2369,2021-09-21 15:18:56.365,-0.1565806070963541,
577,577,2373,2021-09-21 15:18:56.369,-0.0327205657958984,
578,578,2377,2021-09-21 15:18:56.373,-0.3136094411214193,
579,579,2381,2021-09-21 15:18:56.377,-0.0657399495442708,
580,580,2385,2021-09-21 15:18:56.381,-0.2054373423258463,
581,581,2389,2021-09-21 15:18:56.385,-0.2420425415039062,
582,582,2393,2021-09-21 15:18:56.389,-0.0874042510986328,
583,583,2397,2021-09-21 15:18:56.393,-0.35858154296875,
584,584,2401,2021-09-21 15:18:56.397,-0.0865077972412109,
585,585,2405,2021-09-21 15:18:56.401,-0.2315839131673177,
586,586,2409,2021-09-21 15:18:56.405,-0.272820790608724,
587,587,2413,2021-09-21 15:18:56.409,-0.121618906656901,
588,588,2417,2021-09-21 15:18:56.413,-0.3911526997884115,
589,589,2421,2021-09-21 15:18:56.417,-0.1137002309163411,
590,590,2425,2021-09-21 15:18:56.421,-0.2362155914306641,
591,591,2429,2021-09-21 15:18:56.425,-0.2659479777018229,
592,592,2433,2021-09-21 15:18:56.429,-0.1090685526529948,
593,593,2437,2021-09-21 15:18:56.433,-0.3685919443766276,
594,594,2441,2021-09-21 15:18:56.437,-0.0953229268391927,
595,595,2445,2021-09-21 15:18:56.441,-0.2303886413574219,
596,596,2449,2021-09-21 15:18:56.445,-0.2717749277750651,
597,597,2453,2021-09-21 15:18:56.449,-0.1154931386311849,
598,598,2457,2021-09-21 15:18:56.453,-0.3739706675211589,
599,599,2461,2021-09-21 15:18:56.457,-0.1120567321777343,
600,600,2465,2021-09-21 15:18:56.461,-0.2401002248128255,
601,601,2469,2021-09-21 15:18:56.465,-0.2693843841552735,
602,602,2473,2021-09-21 15:18:56.469,-0.1039886474609375,
603,603,2477,2021-09-21 15:18:56.473,-0.3748671213785807,
604,604,2481,2021-09-21 15:18:56.477,-0.1377550760904948,
605,605,2485,2021-09-21 15:18:56.481,-0.272970199584961,
606,606,2489,2021-09-21 15:18:56.485,-0.2953815460205078,
607,607,2493,2021-09-21 15:18:56.489,-0.1252047220865885,
608,608,2497,2021-09-21 15:18:56.493,-0.3670978546142578,
609,609,2501,2021-09-21 15:18:56.497,-0.0890477498372395,
610,610,2505,2021-09-21 15:18:56.501,-0.2377096811930338,
611,611,2509,2021-09-21 15:18:56.505,-0.2862675984700521,
612,612,2513,2021-09-21 15:18:56.509,-0.1429843902587891,
613,613,2517,2021-09-21 15:18:56.513,-0.4138628641764323,
614,614,2521,2021-09-21 15:18:56.517,-0.1385021209716797,
615,615,2525,2021-09-21 15:18:56.521,-0.2480189005533854,
616,616,2529,2021-09-21 15:18:56.525,-0.2529493967692057,
617,617,2533,2021-09-21 15:18:56.529,-0.0905418395996093,
618,618,2537,2021-09-21 15:18:56.533,-0.3676954905192057,
619,619,2541,2021-09-21 15:18:56.537,-0.0977134704589843,
620,620,2545,2021-09-21 15:18:56.541,-0.2417437235514323,
621,621,2549,2021-09-21 15:18:56.545,-0.2828311920166016,
622,622,2553,2021-09-21 15:18:56.549,-0.1266988118489583,
623,623,2557,2021-09-21 15:18:56.553,-0.4071394602457683,
624,624,2561,2021-09-21 15:18:56.557,-0.1422373453776041,
625,625,2565,2021-09-21 15:18:56.561,-0.2596728006998698,
626,626,2569,2021-09-21 15:18:56.565,-0.2687867482503255,
627,627,2573,2021-09-21 15:18:56.569,-0.0972652435302734,
628,628,2577,2021-09-21 15:18:56.573,-0.3688907623291016,
629,629,2581,2021-09-21 15:18:56.577,-0.0865077972412109,
630,630,2585,2021-09-21 15:18:56.581,-0.2034950256347656,
631,631,2589,2021-09-21 15:18:56.585,-0.2411460876464844,
632,632,2593,2021-09-21 15:18:56.589,-0.0977134704589843,
633,633,2597,2021-09-21 15:18:56.593,-0.3702354431152344,
634,634,2601,2021-09-21 15:18:56.597,-0.0977134704589843,
635,635,2605,2021-09-21 15:18:56.601,-0.2262051900227865,
636,636,2609,2021-09-21 15:18:56.605,-0.2614657084147135,
637,637,2613,2021-09-21 15:18:56.609,-0.100253423055013,
638,638,2617,2021-09-21 15:18:56.613,-0.365753173828125,
639,639,2621,2021-09-21 15:18:56.617,-0.0957711537679036,
640,640,2625,2021-09-21 15:18:56.621,-0.2344226837158203,
641,641,2629,2021-09-21 15:18:56.625,-0.2898534138997396,
642,642,2633,2021-09-21 15:18:56.629,-0.143283208211263,
643,643,2637,2021-09-21 15:18:56.633,-0.4075876871744792,
644,644,2641,2021-09-21 15:18:56.637,-0.1371574401855469,
645,645,2645,2021-09-21 15:18:56.641,-0.2454789479573568,
646,646,2649,2021-09-21 15:18:56.645,-0.2617645263671875,
647,647,2653,2021-09-21 15:18:56.649,-0.0899442036946614,
648,648,2657,2021-09-21 15:18:56.653,-0.3361701965332032,
649,649,2661,2021-09-21 15:18:56.657,-0.0587177276611328,
650,650,2665,2021-09-21 15:18:56.661,-0.1824283599853516,
651,651,2669,2021-09-21 15:18:56.665,-0.2311356862386068,
652,652,2673,2021-09-21 15:18:56.669,-0.0836690266927083,
653,653,2677,2021-09-21 15:18:56.673,-0.3554439544677735,
654,654,2681,2021-09-21 15:18:56.677,-0.0515460968017578,
655,655,2685,2021-09-21 15:18:56.681,-0.215447743733724,
656,656,2689,2021-09-21 15:18:56.685,-0.2547423044840495,
657,657,2693,2021-09-21 15:18:56.689,-0.0758997599283854,
658,658,2697,2021-09-21 15:18:56.693,-0.3939914703369141,
659,659,2701,2021-09-21 15:18:56.697,-0.1232624053955078,
660,660,2705,2021-09-21 15:18:56.701,-0.2837276458740235,
661,661,2709,2021-09-21 15:18:56.705,-0.3140576680501302,
662,662,2713,2021-09-21 15:18:56.709,-0.1198259989420573,
663,663,2717,2021-09-21 15:18:56.713,-0.4220803578694662,
664,664,2721,2021-09-21 15:18:56.717,-0.1062297821044922,
665,665,2725,2021-09-21 15:18:56.721,-0.2430884043375651,
666,666,2729,2021-09-21 15:18:56.725,-0.2876122792561849,
667,667,2733,2021-09-21 15:18:56.729,-0.1202742258707682,
668,668,2737,2021-09-21 15:18:56.733,-0.4438940684000652,
669,669,2741,2021-09-21 15:18:56.737,-0.1385021209716797,
670,670,2745,2021-09-21 15:18:56.741,-0.2714761098225912,
671,671,2749,2021-09-21 15:18:56.745,-0.3095753987630208,
672,672,2753,2021-09-21 15:18:56.749,-0.1234118143717448,
673,673,2757,2021-09-21 15:18:56.753,-0.4225285847981771,
674,674,2761,2021-09-21 15:18:56.757,-0.1494089762369791,
675,675,2765,2021-09-21 15:18:56.761,-0.279693603515625,
676,676,2769,2021-09-21 15:18:56.765,-0.2923933664957682,
677,677,2773,2021-09-21 15:18:56.769,-0.1041380564371745,
678,678,2777,2021-09-21 15:18:56.773,-0.3751659393310547,
679,679,2781,2021-09-21 15:18:56.777,-0.0944264729817708,
680,680,2785,2021-09-21 15:18:56.781,-0.2106666564941406,
681,681,2789,2021-09-21 15:18:56.785,-0.2348709106445312,
682,682,2793,2021-09-21 15:18:56.789,-0.0688775380452474,
683,683,2797,2021-09-21 15:18:56.793,-0.337216059366862,
684,684,2801,2021-09-21 15:18:56.797,-0.10040283203125,
685,685,2805,2021-09-21 15:18:56.801,-0.2357673645019531,
686,686,2809,2021-09-21 15:18:56.805,-0.2770042419433594,
687,687,2813,2021-09-21 15:18:56.809,-0.1311810811360677,
688,688,2817,2021-09-21 15:18:56.813,-0.3650061289469401,
689,689,2821,2021-09-21 15:18:56.817,-0.1026439666748047,
690,690,2825,2021-09-21 15:18:56.821,-0.2121607462565104,
691,691,2829,2021-09-21 15:18:56.825,-0.2129077911376953,
692,692,2833,2021-09-21 15:18:56.829,-0.0655905405680338,
693,693,2837,2021-09-21 15:18:56.833,-0.351260503133138,
694,694,2841,2021-09-21 15:18:56.837,-0.1272964477539062,
695,695,2845,2021-09-21 15:18:56.841,-0.2572822570800782,
696,696,2849,2021-09-21 15:18:56.845,-0.2545928955078125,
697,697,2853,2021-09-21 15:18:56.849,-0.0941276550292968,
698,698,2857,2021-09-21 15:18:56.853,-0.359029769897461,
699,699,2861,2021-09-21 15:18:56.857,-0.1295375823974609,
700,700,2865,2021-09-21 15:18:56.861,-0.2421919504801432,
701,701,2869,2021-09-21 15:18:56.865,-0.1898988087972005,
702,702,2873,2021-09-21 15:18:56.869,0.0812784830729166,
703,703,2877,2021-09-21 15:18:56.873,-0.0366051991780599,
704,704,2881,2021-09-21 15:18:56.877,0.2562363942464193,
705,705,2885,2021-09-21 15:18:56.881,0.0442250569661458,
706,706,2889,2021-09-21 15:18:56.885,-0.2232170104980469,
707,707,2893,2021-09-21 15:18:56.889,-0.344088872273763,
708,708,2897,2021-09-21 15:18:56.893,-0.8003838857014975,
709,709,2901,2021-09-21 15:18:56.897,-0.6857872009277345,
710,710,2905,2021-09-21 15:18:56.901,-0.8057626088460288,
711,711,2909,2021-09-21 15:18:56.905,-0.6971422831217449,
712,712,2913,2021-09-21 15:18:56.909,-0.3343772888183594,
713,713,2917,2021-09-21 15:18:56.913,-0.3860727945963542,
714,714,2921,2021-09-21 15:18:56.917,0.0177796681722005,
715,715,2925,2021-09-21 15:18:56.921,-0.0515460968017578,
716,716,2929,2021-09-21 15:18:56.925,-0.0673834482828776,
717,717,2933,2021-09-21 15:18:56.929,0.0796349843343099,
718,718,2937,2021-09-21 15:18:56.933,-0.2190335591634115,
719,719,2941,2021-09-21 15:18:56.937,0.0237560272216796,
720,720,2945,2021-09-21 15:18:56.941,-0.1283423105875651,
721,721,2949,2021-09-21 15:18:56.945,-0.1746590932210286,
722,722,2953,2021-09-21 15:18:56.949,-0.035409927368164,
723,723,2957,2021-09-21 15:18:56.953,-0.3198846181233724,
724,724,2961,2021-09-21 15:18:56.957,-0.07171630859375,
725,725,2965,2021-09-21 15:18:56.961,-0.2170912424723307,
726,726,2969,2021-09-21 15:18:56.965,-0.2678902943929037,
727,727,2973,2021-09-21 15:18:56.969,-0.1226647694905599,
728,728,2977,2021-09-21 15:18:56.973,-0.3866704305013021,
729,729,2981,2021-09-21 15:18:56.977,-0.0978628794352213,
730,730,2985,2021-09-21 15:18:56.981,-0.2392037709554036,
731,731,2989,2021-09-21 15:18:56.985,-0.2862675984700521,
732,732,2993,2021-09-21 15:18:56.989,-0.1281929016113281,
733,733,2997,2021-09-21 15:18:56.993,-0.394887924194336,
734,734,3001,2021-09-21 15:18:56.997,-0.1269976298014323,
735,735,3005,2021-09-21 15:18:57.001,-0.2568340301513672,
736,736,3009,2021-09-21 15:18:57.005,-0.2914969126383464,
737,737,3013,2021-09-21 15:18:57.009,-0.1331233978271484,
738,738,3017,2021-09-21 15:18:57.013,-0.3835328420003255,
739,739,3021,2021-09-21 15:18:57.017,-0.1099650065104166,
740,740,3025,2021-09-21 15:18:57.021,-0.2314345041910807,
741,741,3029,2021-09-21 15:18:57.025,-0.2802912394205729,
742,742,3033,2021-09-21 15:18:57.029,-0.1326751708984375,
743,743,3037,2021-09-21 15:18:57.033,-0.4240226745605469,
744,744,3041,2021-09-21 15:18:57.037,-0.229791005452474,
745,745,3045,2021-09-21 15:18:57.041,-0.1401456197102864,
746,746,3049,2021-09-21 15:18:57.045,-0.279843012491862,
747,747,3053,2021-09-21 15:18:57.049,-0.0273418426513671,
748,748,3057,2021-09-21 15:18:57.053,-0.2841758728027344,
749,749,3061,2021-09-21 15:18:57.057,-0.1662921905517578,
750,750,3065,2021-09-21 15:18:57.061,-0.1731650034586588,
751,751,3069,2021-09-21 15:18:57.065,-0.3523063659667969,
752,752,3073,2021-09-21 15:18:57.069,-0.0971158345540364,
753,753,3077,2021-09-21 15:18:57.073,-0.3333314259847005,
754,754,3081,2021-09-21 15:18:57.077,-0.2057361602783203,
755,755,3085,2021-09-21 15:18:57.081,-0.1776472727457682,
756,756,3089,2021-09-21 15:18:57.085,-0.3405030568440755,
757,757,3093,2021-09-21 15:18:57.089,-0.0838184356689453,
758,758,3097,2021-09-21 15:18:57.093,-0.3183905283610026,
759,759,3101,2021-09-21 15:18:57.097,-0.1833248138427734,
760,760,3105,2021-09-21 15:18:57.101,-0.1734638214111328,
761,761,3109,2021-09-21 15:18:57.105,-0.3500652313232422,
762,762,3113,2021-09-21 15:18:57.109,-0.1083215077718099,
763,763,3117,2021-09-21 15:18:57.113,-0.3360207875569662,
764,764,3121,2021-09-21 15:18:57.117,-0.1909446716308594,
765,765,3125,2021-09-21 15:18:57.121,-0.1757049560546875,
766,766,3129,2021-09-21 15:18:57.125,-0.3535016377766927,
767,767,3133,2021-09-21 15:18:57.129,-0.0978628794352213,
768,768,3137,2021-09-21 15:18:57.133,-0.3200340270996094,
769,769,3141,2021-09-21 15:18:57.137,-0.1903470357259114,
770,770,3145,2021-09-21 15:18:57.141,-0.1872094472249349,
771,771,3149,2021-09-21 15:18:57.145,-0.3454335530598958,
772,772,3153,2021-09-21 15:18:57.149,-0.0833702087402343,
773,773,3157,2021-09-21 15:18:57.153,-0.3038978576660157,
774,774,3161,2021-09-21 15:18:57.157,-0.1528453826904297,
775,775,3165,2021-09-21 15:18:57.161,-0.1513512929280599,
776,776,3169,2021-09-21 15:18:57.165,-0.3349749247233073,
777,777,3173,2021-09-21 15:18:57.169,-0.0860595703125,
778,778,3177,2021-09-21 15:18:57.173,-0.3148047129313151,
779,779,3181,2021-09-21 15:18:57.177,-0.1680850982666016,
780,780,3185,2021-09-21 15:18:57.181,-0.1580746968587239,
781,781,3189,2021-09-21 15:18:57.185,-0.3310902913411458,
782,782,3193,2021-09-21 15:18:57.189,-0.0887489318847656,
783,783,3197,2021-09-21 15:18:57.193,-0.3162988026936849,
784,784,3201,2021-09-21 15:18:57.197,-0.1706250508626302,
785,785,3205,2021-09-21 15:18:57.201,-0.1652463277180989,
786,786,3209,2021-09-21 15:18:57.205,-0.344088872273763,
787,787,3213,2021-09-21 15:18:57.209,-0.1107120513916015,
788,788,3217,2021-09-21 15:18:57.213,-0.3318373362223307,
789,789,3221,2021-09-21 15:18:57.217,-0.1942316691080729,
790,790,3225,2021-09-21 15:18:57.221,-0.1727167765299479,
791,791,3229,2021-09-21 15:18:57.225,-0.3279527028401693,
792,792,3233,2021-09-21 15:18:57.229,-0.0835196177164713,
793,793,3237,2021-09-21 15:18:57.233,-0.3100236256917318,
794,794,3241,2021-09-21 15:18:57.237,-0.1803366343180338,
795,795,3245,2021-09-21 15:18:57.241,-0.1585229237874349,
796,796,3249,2021-09-21 15:18:57.245,-0.3210798899332682,
797,797,3253,2021-09-21 15:18:57.249,-0.0754515329996744,
798,798,3257,2021-09-21 15:18:57.253,-0.3221257527669271,
799,799,3261,2021-09-21 15:18:57.257,-0.1821295420328776,
800,800,3265,2021-09-21 15:18:57.261,-0.1728661855061849,
801,801,3269,2021-09-21 15:18:57.265,-0.3626155853271485,
802,802,3273,2021-09-21 15:18:57.269,-0.0971158345540364,
803,803,3277,2021-09-21 15:18:57.273,-0.3219763437906901,
804,804,3281,2021-09-21 15:18:57.277,-0.1827271779378255,
805,805,3285,2021-09-21 15:18:57.281,-0.179440180460612,
806,806,3289,2021-09-21 15:18:57.285,-0.3599262237548828,
807,807,3293,2021-09-21 15:18:57.289,-0.1024945576985677,
808,808,3297,2021-09-21 15:18:57.293,-0.3264586130777995,
809,809,3301,2021-09-21 15:18:57.297,-0.1779460906982422,
810,810,3305,2021-09-21 15:18:57.301,-0.1692803700764974,
811,811,3309,2021-09-21 15:18:57.305,-0.3394571940104167,
812,812,3313,2021-09-21 15:18:57.309,-0.0826231638590494,
813,813,3317,2021-09-21 15:18:57.313,-0.315252939860026,
814,814,3321,2021-09-21 15:18:57.317,-0.172268549601237,
815,815,3325,2021-09-21 15:18:57.321,-0.1618099212646484,
816,816,3329,2021-09-21 15:18:57.325,-0.3457323710123698,
817,817,3333,2021-09-21 15:18:57.329,-0.1017475128173828,
818,818,3337,2021-09-21 15:18:57.333,-0.3278032938639323,
819,819,3341,2021-09-21 15:18:57.337,-0.1757049560546875,
820,820,3345,2021-09-21 15:18:57.341,-0.1628557840983073,
821,821,3349,2021-09-21 15:18:57.345,-0.336917241414388,
822,822,3353,2021-09-21 15:18:57.349,-0.0845654805501302,
823,823,3357,2021-09-21 15:18:57.353,-0.3215281168619792,
824,824,3361,2021-09-21 15:18:57.357,-0.1737626393636067,
825,825,3365,2021-09-21 15:18:57.361,-0.1634534200032552,
826,826,3369,2021-09-21 15:18:57.365,-0.3364690144856771,
827,827,3373,2021-09-21 15:18:57.369,-0.0718657175699869,
828,828,3377,2021-09-21 15:18:57.373,-0.301059087117513,
829,829,3381,2021-09-21 15:18:57.377,-0.1628557840983073,
830,830,3385,2021-09-21 15:18:57.381,-0.1625569661458333,
831,831,3389,2021-09-21 15:18:57.385,-0.3415489196777344,
832,832,3393,2021-09-21 15:18:57.389,-0.0945758819580078,
833,833,3397,2021-09-21 15:18:57.393,-0.337216059366862,
834,834,3401,2021-09-21 15:18:57.397,-0.2008056640625,
835,835,3405,2021-09-21 15:18:57.401,-0.1981163024902344,
836,836,3409,2021-09-21 15:18:57.405,-0.3696378072102865,
837,837,3413,2021-09-21 15:18:57.409,-0.1138496398925781,
838,838,3417,2021-09-21 15:18:57.413,-0.3278032938639323,
839,839,3421,2021-09-21 15:18:57.417,-0.1788425445556641,
840,840,3425,2021-09-21 15:18:57.421,-0.1665910085042317,
841,841,3429,2021-09-21 15:18:57.425,-0.3346761067708333,
842,842,3433,2021-09-21 15:18:57.429,-0.0826231638590494,
843,843,3437,2021-09-21 15:18:57.433,-0.3103224436442057,
844,844,3441,2021-09-21 15:18:57.437,-0.18646240234375,
845,845,3445,2021-09-21 15:18:57.441,-0.1955763498942057,
846,846,3449,2021-09-21 15:18:57.445,-0.3594779968261719,
847,847,3453,2021-09-21 15:18:57.449,-0.0836690266927083,
848,848,3457,2021-09-21 15:18:57.453,-0.2468236287434896,
849,849,3461,2021-09-21 15:18:57.457,-0.0011952718098958,
850,850,3465,2021-09-21 15:18:57.461,0.1223659515380859,
851,851,3469,2021-09-21 15:18:57.465,0.0201702117919921,
852,852,3473,2021-09-21 15:18:57.469,0.2483177185058594,
853,853,3477,2021-09-21 15:18:57.473,-0.1225153605143229,
854,854,3481,2021-09-21 15:18:57.477,-0.251455307006836,
855,855,3485,2021-09-21 15:18:57.481,-0.5112775166829427,
856,856,3489,2021-09-21 15:18:57.485,-0.861043930053711,
857,857,3493,2021-09-21 15:18:57.489,-0.7050609588623048,
858,858,3497,2021-09-21 15:18:57.493,-0.8579063415527345,
859,859,3501,2021-09-21 15:18:57.497,-0.5422051747639974,
860,860,3505,2021-09-21 15:18:57.501,-0.3003120422363282,
861,861,3509,2021-09-21 15:18:57.505,-0.2826817830403646,
862,862,3513,2021-09-21 15:18:57.509,0.0806808471679687,
863,863,3517,2021-09-21 15:18:57.513,-0.1240094502766927,
864,864,3521,2021-09-21 15:18:57.517,0.0019423166910807,
865,865,3525,2021-09-21 15:18:57.521,-0.0236066182454427,
866,866,3529,2021-09-21 15:18:57.525,-0.2285957336425781,
867,867,3533,2021-09-21 15:18:57.529,0.0188255310058593,
868,868,3537,2021-09-21 15:18:57.533,-0.2269522349039713,
869,869,3541,2021-09-21 15:18:57.537,-0.0908406575520833,
870,870,3545,2021-09-21 15:18:57.541,-0.1026439666748047,
871,871,3549,2021-09-21 15:18:57.545,-0.2903016408284505,
872,872,3553,2021-09-21 15:18:57.549,-0.0482590993245442,
873,873,3557,2021-09-21 15:18:57.553,-0.294036865234375,
874,874,3561,2021-09-21 15:18:57.557,-0.1535924275716146,
875,875,3565,2021-09-21 15:18:57.561,-0.1583735148111979,
876,876,3569,2021-09-21 15:18:57.565,-0.3430430094401042,
877,877,3573,2021-09-21 15:18:57.569,-0.0848642985026041,
878,878,3577,2021-09-21 15:18:57.573,-0.3200340270996094,
879,879,3581,2021-09-21 15:18:57.577,-0.1763025919596354,
880,880,3585,2021-09-21 15:18:57.581,-0.1824283599853516,
881,881,3589,2021-09-21 15:18:57.585,-0.3597768147786458,
882,882,3593,2021-09-21 15:18:57.589,-0.1026439666748047,
883,883,3597,2021-09-21 15:18:57.593,-0.3322855631510417,
884,884,3601,2021-09-21 15:18:57.597,-0.1809342702229817,
885,885,3605,2021-09-21 15:18:57.601,-0.1731650034586588,
886,886,3609,2021-09-21 15:18:57.605,-0.3493181864420573,
887,887,3613,2021-09-21 15:18:57.609,-0.0950241088867187,
888,888,3617,2021-09-21 15:18:57.613,-0.3254127502441407,
889,889,3621,2021-09-21 15:18:57.617,-0.1798884073893229,
890,890,3625,2021-09-21 15:18:57.621,-0.1831754048665364,
891,891,3629,2021-09-21 15:18:57.625,-0.3666496276855469,
892,892,3633,2021-09-21 15:18:57.629,-0.1168378194173177,
893,893,3637,2021-09-21 15:18:57.633,-0.3352737426757813,
894,894,3641,2021-09-21 15:18:57.637,-0.179440180460612,
895,895,3645,2021-09-21 15:18:57.641,-0.1727167765299479,
896,896,3649,2021-09-21 15:18:57.645,-0.3397560119628907,
897,897,3653,2021-09-21 15:18:57.649,-0.0830713907877604,
898,898,3657,2021-09-21 15:18:57.653,-0.3209304809570313,
899,899,3661,2021-09-21 15:18:57.657,-0.193932851155599,
900,900,3665,2021-09-21 15:18:57.661,-0.1898988087972005,
901,901,3669,2021-09-21 15:18:57.665,-0.3500652313232422,
902,902,3673,2021-09-21 15:18:57.669,-0.0920359293619791,
903,903,3677,2021-09-21 15:18:57.673,-0.3215281168619792,
904,904,3681,2021-09-21 15:18:57.677,-0.1694297790527344,
905,905,3685,2021-09-21 15:18:57.681,-0.164798100789388,
906,906,3689,2021-09-21 15:18:57.685,-0.337066650390625,
907,907,3693,2021-09-21 15:18:57.689,-0.0833702087402343,
908,908,3697,2021-09-21 15:18:57.693,-0.3151035308837891,
909,909,3701,2021-09-21 15:18:57.697,-0.1774978637695312,
910,910,3705,2021-09-21 15:18:57.701,-0.1827271779378255,
911,911,3709,2021-09-21 15:18:57.705,-0.3600756327311198,
912,912,3713,2021-09-21 15:18:57.709,-0.1169872283935547,
913,913,3717,2021-09-21 15:18:57.713,-0.3379631042480469,
914,914,3721,2021-09-21 15:18:57.717,-0.2031962076822916,
915,915,3725,2021-09-21 15:18:57.721,-0.2022997538248698,
916,916,3729,2021-09-21 15:18:57.725,-0.3635120391845703,
917,917,3733,2021-09-21 15:18:57.729,-0.1038392384847005,
918,918,3737,2021-09-21 15:18:57.733,-0.3095753987630208,
919,919,3741,2021-09-21 15:18:57.737,-0.1470184326171875,
920,920,3745,2021-09-21 15:18:57.741,-0.1416397094726562,
921,921,3749,2021-09-21 15:18:57.745,-0.3122647603352865,
922,922,3753,2021-09-21 15:18:57.749,-0.0585683186848958,
923,923,3757,2021-09-21 15:18:57.753,-0.3037484486897787,
924,924,3761,2021-09-21 15:18:57.757,-0.1677862803141276,
925,925,3765,2021-09-21 15:18:57.761,-0.1785437266031901,
926,926,3769,2021-09-21 15:18:57.765,-0.3579839070638021,
927,927,3773,2021-09-21 15:18:57.769,-0.0933806101481119,
928,928,3777,2021-09-21 15:18:57.773,-0.3049437204996745,
929,929,3781,2021-09-21 15:18:57.777,-0.1588217417399088,
930,930,3785,2021-09-21 15:18:57.781,-0.1543394724527995,
931,931,3789,2021-09-21 15:18:57.785,-0.32989501953125,
932,932,3793,2021-09-21 15:18:57.789,-0.0791867574055989,
933,933,3797,2021-09-21 15:18:57.793,-0.3155517578125,
934,934,3801,2021-09-21 15:18:57.797,-0.1809342702229817,
935,935,3805,2021-09-21 15:18:57.801,-0.1855659484863281,
936,936,3809,2021-09-21 15:18:57.805,-0.3573862711588542,
937,937,3813,2021-09-21 15:18:57.809,-0.0948746999104817,
938,938,3817,2021-09-21 15:18:57.813,-0.3195858001708985,
939,939,3821,2021-09-21 15:18:57.817,-0.1748085021972656,
940,940,3825,2021-09-21 15:18:57.821,-0.1783943176269531,
941,941,3829,2021-09-21 15:18:57.825,-0.3520075480143229,
942,942,3833,2021-09-21 15:18:57.829,-0.0947252909342448,
943,943,3837,2021-09-21 15:18:57.833,-0.3206316630045573,
944,944,3841,2021-09-21 15:18:57.837,-0.1698780059814453,
945,945,3845,2021-09-21 15:18:57.841,-0.1694297790527344,
946,946,3849,2021-09-21 15:18:57.845,-0.3497664133707682,
947,947,3853,2021-09-21 15:18:57.849,-0.106976826985677,
948,948,3857,2021-09-21 15:18:57.853,-0.3279527028401693,
949,949,3861,2021-09-21 15:18:57.857,-0.1752567291259766,
950,950,3865,2021-09-21 15:18:57.861,-0.1659933725992838,
951,951,3869,2021-09-21 15:18:57.865,-0.3336302439371745,
952,952,3873,2021-09-21 15:18:57.869,-0.0905418395996093,
953,953,3877,2021-09-21 15:18:57.873,-0.3213787078857422,
954,954,3881,2021-09-21 15:18:57.877,-0.1834742228190104,
955,955,3885,2021-09-21 15:18:57.881,-0.1770496368408203,
956,956,3889,2021-09-21 15:18:57.885,-0.3327337900797526,
957,957,3893,2021-09-21 15:18:57.889,-0.0776926676432291,
958,958,3897,2021-09-21 15:18:57.893,-0.3095753987630208,
959,959,3901,2021-09-21 15:18:57.897,-0.1685333251953125,
960,960,3905,2021-09-21 15:18:57.901,-0.1694297790527344,
961,961,3909,2021-09-21 15:18:57.905,-0.3364690144856771,
962,962,3913,2021-09-21 15:18:57.909,-0.0884501139322916,
963,963,3917,2021-09-21 15:18:57.913,-0.3243668874104818,
964,964,3921,2021-09-21 15:18:57.917,-0.1818307240804036,
965,965,3925,2021-09-21 15:18:57.921,-0.1828765869140625,
966,966,3929,2021-09-21 15:18:57.925,-0.3581333160400391,
967,967,3933,2021-09-21 15:18:57.929,-0.1105626424153645,
968,968,3937,2021-09-21 15:18:57.933,-0.330343246459961,
969,969,3941,2021-09-21 15:18:57.937,-0.1836236317952474,
970,970,3945,2021-09-21 15:18:57.941,-0.1680850982666016,
971,971,3949,2021-09-21 15:18:57.945,-0.3185399373372396,
972,972,3953,2021-09-21 15:18:57.949,-0.0670846303304036,
973,973,3957,2021-09-21 15:18:57.953,-0.2985191345214844,
974,974,3961,2021-09-21 15:18:57.957,-0.1698780059814453,
975,975,3965,2021-09-21 15:18:57.961,-0.1658439636230469,
976,976,3969,2021-09-21 15:18:57.965,-0.3264586130777995,
977,977,3973,2021-09-21 15:18:57.969,-0.0966676076253255,
978,978,3977,2021-09-21 15:18:57.973,-0.329745610555013,
979,979,3981,2021-09-21 15:18:57.977,-0.1982657114664713,
980,980,3985,2021-09-21 15:18:57.981,-0.1963233947753906,
981,981,3989,2021-09-21 15:18:57.985,-0.3466288248697917,
982,982,3993,2021-09-21 15:18:57.989,-0.0887489318847656,
983,983,3997,2021-09-21 15:18:57.993,-0.3074836730957032,
984,984,4001,2021-09-21 15:18:57.997,-0.1616605122884114,
985,985,4005,2021-09-21 15:18:58.001,-0.1604652404785156,
986,986,4009,2021-09-21 15:18:58.005,-0.3406524658203125,
987,987,4013,2021-09-21 15:18:58.009,-0.0978628794352213,
988,988,4017,2021-09-21 15:18:58.013,-0.3330326080322266,
989,989,4021,2021-09-21 15:18:58.017,-0.1876576741536458,
990,990,4025,2021-09-21 15:18:58.021,-0.2033456166585286,Start
991,991,4029,2021-09-21 15:18:58.025,-0.3791999816894532,
992,992,4033,2021-09-21 15:18:58.029,-0.0800832112630208,
993,993,4037,2021-09-21 15:18:58.033,-0.2024491628011068,
994,994,4041,2021-09-21 15:18:58.037,-0.0818761189778645,
995,995,4045,2021-09-21 15:18:58.041,0.2239640553792318,
996,996,4049,2021-09-21 15:18:58.045,0.0829219818115234,
997,997,4053,2021-09-21 15:18:58.049,0.257879892985026,
998,998,4057,2021-09-21 15:18:58.053,-0.1177342732747395,
999,999,4061,2021-09-21 15:18:58.057,-0.4863262176513672,
1000,1000,4065,2021-09-21 15:18:58.061,-0.631551742553711,
1001,1001,4069,2021-09-21 15:18:58.065,-1.0219573974609375,
1002,1002,4073,2021-09-21 15:18:58.069,-0.7797654469807944,
1003,1003,4077,2021-09-21 15:18:58.073,-0.724932352701823,
1004,1004,4081,2021-09-21 15:18:58.077,-0.5112775166829427,
1005,1005,4085,2021-09-21 15:18:58.081,-0.1301352183024088,
1006,1006,4089,2021-09-21 15:18:58.085,-0.2191829681396484,
1007,1007,4093,2021-09-21 15:18:58.089,0.0977134704589843,
1008,1008,4097,2021-09-21 15:18:58.093,-0.0231583913167317,
1009,1009,4101,2021-09-21 15:18:58.097,-0.0724633534749349,
1010,1010,4105,2021-09-21 15:18:58.101,0.0452709197998046,
1011,1011,4109,2021-09-21 15:18:58.105,-0.2254581451416016,
1012,1012,4113,2021-09-21 15:18:58.109,0.007022221883138,
1013,1013,4117,2021-09-21 15:18:58.113,-0.1456737518310547,
1014,1014,4121,2021-09-21 15:18:58.117,-0.1967716217041016,
1015,1015,4125,2021-09-21 15:18:58.121,-0.0697739919026692,
1016,1016,4129,2021-09-21 15:18:58.125,-0.3282515207926432,
1017,1017,4133,2021-09-21 15:18:58.129,-0.0794855753580729,
1018,1018,4137,2021-09-21 15:18:58.133,-0.2175394694010416,
1019,1019,4141,2021-09-21 15:18:58.137,-0.2526505788167318,
1020,1020,4145,2021-09-21 15:18:58.141,-0.1235612233479817,
1021,1021,4149,2021-09-21 15:18:58.145,-0.3703848520914714,
1022,1022,4153,2021-09-21 15:18:58.149,-0.1177342732747395,
1023,1023,4157,2021-09-21 15:18:58.153,-0.2420425415039062,
1024,1024,4161,2021-09-21 15:18:58.157,-0.2705796559651693,
1025,1025,4165,2021-09-21 15:18:58.161,-0.1332728068033854,
1026,1026,4169,2021-09-21 15:18:58.165,-0.3653049468994141,
1027,1027,4173,2021-09-21 15:18:58.169,-0.1271470387776692,
1028,1028,4177,2021-09-21 15:18:58.173,-0.2486165364583333,
1029,1029,4181,2021-09-21 15:18:58.177,-0.2675914764404297,
1030,1030,4185,2021-09-21 15:18:58.181,-0.1349163055419922,
1031,1031,4189,2021-09-21 15:18:58.185,-0.3645579020182292,
1032,1032,4193,2021-09-21 15:18:58.189,-0.1137002309163411,
1033,1033,4197,2021-09-21 15:18:58.193,-0.2371120452880859,
1034,1034,4201,2021-09-21 15:18:58.197,-0.2640056610107422,
1035,1035,4205,2021-09-21 15:18:58.201,-0.1278940836588541,
1036,1036,4209,2021-09-21 15:18:58.205,-0.3535016377766927,
1037,1037,4213,2021-09-21 15:18:58.209,-0.0868066151936849,
1038,1038,4217,2021-09-21 15:18:58.213,-0.2206770579020182,
1039,1039,4221,2021-09-21 15:18:58.217,-0.2631092071533203,
1040,1040,4225,2021-09-21 15:18:58.221,-0.1413408915201823,
1041,1041,4229,2021-09-21 15:18:58.225,-0.3854751586914063,
1042,1042,4233,2021-09-21 15:18:58.229,-0.121320088704427,
1043,1043,4237,2021-09-21 15:18:58.233,-0.2412954966227213,
1044,1044,4241,2021-09-21 15:18:58.237,-0.2693843841552735,
1045,1045,4245,2021-09-21 15:18:58.241,-0.1380538940429687,
1046,1046,4249,2021-09-21 15:18:58.245,-0.3884633382161458,
1047,1047,4253,2021-09-21 15:18:58.249,-0.1385021209716797,
1048,1048,4257,2021-09-21 15:18:58.253,-0.2574316660563151,
1049,1049,4261,2021-09-21 15:18:58.257,-0.2805900573730469,
1050,1050,4265,2021-09-21 15:18:58.261,-0.1417891184488932,
1051,1051,4269,2021-09-21 15:18:58.265,-0.372625986735026,
1052,1052,4273,2021-09-21 15:18:58.269,-0.1101144154866536,
1053,1053,4277,2021-09-21 15:18:58.273,-0.2285957336425781,
1054,1054,4281,2021-09-21 15:18:58.277,-0.2496623992919922,
1055,1055,4285,2021-09-21 15:18:58.281,-0.1172860463460286,
1056,1056,4289,2021-09-21 15:18:58.285,-0.3699366251627604,
1057,1057,4293,2021-09-21 15:18:58.289,-0.1243082682291666,
1058,1058,4297,2021-09-21 15:18:58.293,-0.2486165364583333,
1059,1059,4301,2021-09-21 15:18:58.297,-0.2680397033691407,
1060,1060,4305,2021-09-21 15:18:58.301,-0.1247564951578776,
1061,1061,4309,2021-09-21 15:18:58.305,-0.3705342610677083,
1062,1062,4313,2021-09-21 15:18:58.309,-0.1183319091796875,
1063,1063,4317,2021-09-21 15:18:58.313,-0.2492141723632812,
1064,1064,4321,2021-09-21 15:18:58.317,-0.2708784739176432,
1065,1065,4325,2021-09-21 15:18:58.321,-0.1199754079182942,
1066,1066,4329,2021-09-21 15:18:58.325,-0.3546969095865885,
1067,1067,4333,2021-09-21 15:18:58.329,-0.0956217447916666,
1068,1068,4337,2021-09-21 15:18:58.333,-0.2209758758544922,
1069,1069,4341,2021-09-21 15:18:58.337,-0.2490647633870443,
1070,1070,4345,2021-09-21 15:18:58.341,-0.100552241007487,
1071,1071,4349,2021-09-21 15:18:58.345,-0.3412501017252604,
1072,1072,4353,2021-09-21 15:18:58.349,-0.0881512959798177,
1073,1073,4357,2021-09-21 15:18:58.353,-0.2178382873535156,
1074,1074,4361,2021-09-21 15:18:58.357,-0.2554893493652344,
1075,1075,4365,2021-09-21 15:18:58.361,-0.1104132334391276,
1076,1076,4369,2021-09-21 15:18:58.365,-0.3608226776123047,
1077,1077,4373,2021-09-21 15:18:58.369,-0.1196765899658203,
1078,1078,4377,2021-09-21 15:18:58.373,-0.251007080078125,
1079,1079,4381,2021-09-21 15:18:58.377,-0.2684879302978516,
1080,1080,4385,2021-09-21 15:18:58.381,-0.114148457845052,
1081,1081,4389,2021-09-21 15:18:58.385,-0.3549957275390625,
1082,1082,4393,2021-09-21 15:18:58.389,-0.1032416025797526,
1083,1083,4397,2021-09-21 15:18:58.393,-0.2414449055989583,
1084,1084,4401,2021-09-21 15:18:58.397,-0.2750619252522787,
1085,1085,4405,2021-09-21 15:18:58.401,-0.1343186696370442,
1086,1086,4409,2021-09-21 15:18:58.405,-0.3766600290934245,
1087,1087,4413,2021-09-21 15:18:58.409,-0.1157919565836588,
1088,1088,4417,2021-09-21 15:18:58.413,-0.2423413594563802,
1089,1089,4421,2021-09-21 15:18:58.417,-0.2599716186523438,
1090,1090,4425,2021-09-21 15:18:58.421,-0.1199754079182942,
1091,1091,4429,2021-09-21 15:18:58.425,-0.3691895802815755,
1092,1092,4433,2021-09-21 15:18:58.429,-0.1150449117024739,
1093,1093,4437,2021-09-21 15:18:58.433,-0.2484671274820963,
1094,1094,4441,2021-09-21 15:18:58.437,-0.272372563680013,
1095,1095,4445,2021-09-21 15:18:58.441,-0.1268482208251953,
1096,1096,4449,2021-09-21 15:18:58.445,-0.3699366251627604,
1097,1097,4453,2021-09-21 15:18:58.449,-0.1096661885579427,
1098,1098,4457,2021-09-21 15:18:58.453,-0.2424907684326172,
1099,1099,4461,2021-09-21 15:18:58.457,-0.2686373392740885,
1100,1100,4465,2021-09-21 15:18:58.461,-0.1258023579915364,
1101,1101,4469,2021-09-21 15:18:58.465,-0.3644084930419922,
1102,1102,4473,2021-09-21 15:18:58.469,-0.107723871866862,
1103,1103,4477,2021-09-21 15:18:58.473,-0.2375602722167969,
1104,1104,4481,2021-09-21 15:18:58.477,-0.27252197265625,
1105,1105,4485,2021-09-21 15:18:58.481,-0.1422373453776041,
1106,1106,4489,2021-09-21 15:18:58.485,-0.3736718495686849,
1107,1107,4493,2021-09-21 15:18:58.489,-0.1113096872965495,
1108,1108,4497,2021-09-21 15:18:58.493,-0.2288945515950521,
1109,1109,4501,2021-09-21 15:18:58.497,-0.2472718556722005,
1110,1110,4505,2021-09-21 15:18:58.501,-0.107723871866862,
1111,1111,4509,2021-09-21 15:18:58.505,-0.3418477376302083,
1112,1112,4513,2021-09-21 15:18:58.509,-0.093231201171875,
1113,1113,4517,2021-09-21 15:18:58.513,-0.2190335591634115,
1114,1114,4521,2021-09-21 15:18:58.517,-0.2401002248128255,
1115,1115,4525,2021-09-21 15:18:58.521,-0.1062297821044922,
1116,1116,4529,2021-09-21 15:18:58.525,-0.3454335530598958,
1117,1117,4533,2021-09-21 15:18:58.529,-0.100104014078776,
1118,1118,4537,2021-09-21 15:18:58.533,-0.2432378133138021,
1119,1119,4541,2021-09-21 15:18:58.537,-0.2850723266601563,
1120,1120,4545,2021-09-21 15:18:58.541,-0.1532936096191406,
1121,1121,4549,2021-09-21 15:18:58.545,-0.3902562459309896,
1122,1122,4553,2021-09-21 15:18:58.549,-0.1347668965657552,
1123,1123,4557,2021-09-21 15:18:58.553,-0.251305898030599,
1124,1124,4561,2021-09-21 15:18:58.557,-0.2545928955078125,
1125,1125,4565,2021-09-21 15:18:58.561,-0.1032416025797526,
1126,1126,4569,2021-09-21 15:18:58.565,-0.3549957275390625,
1127,1127,4573,2021-09-21 15:18:58.569,-0.1057815551757812,
1128,1128,4577,2021-09-21 15:18:58.573,-0.2372614542643229,
1129,1129,4581,2021-09-21 15:18:58.577,-0.2622127532958985,
1130,1130,4585,2021-09-21 15:18:58.581,-0.1320775349934896,
1131,1131,4589,2021-09-21 15:18:58.585,-0.3935432434082032,
1132,1132,4593,2021-09-21 15:18:58.589,-0.1468690236409505,
1133,1133,4597,2021-09-21 15:18:58.593,-0.2323309580485026,
1134,1134,4601,2021-09-21 15:18:58.597,-0.1561323801676432,
1135,1135,4605,2021-09-21 15:18:58.601,0.1177342732747395,
1136,1136,4609,2021-09-21 15:18:58.605,-0.021216074625651,
1137,1137,4613,2021-09-21 15:18:58.609,0.2747631072998047,
1138,1138,4617,2021-09-21 15:18:58.613,0.0900936126708984,
1139,1139,4621,2021-09-21 15:18:58.617,-0.15777587890625,
1140,1140,4625,2021-09-21 15:18:58.621,-0.3249645233154297,
1141,1141,4629,2021-09-21 15:18:58.625,-0.8096472422281902,
1142,1142,4633,2021-09-21 15:18:58.629,-0.7379309336344402,
1143,1143,4637,2021-09-21 15:18:58.633,-0.8831564585367839,
1144,1144,4641,2021-09-21 15:18:58.637,-0.7803630828857423,
1145,1145,4645,2021-09-21 15:18:58.641,-0.4063924153645833,
1146,1146,4649,2021-09-21 15:18:58.645,-0.4084841410319011,
1147,1147,4653,2021-09-21 15:18:58.649,0.0115044911702473,
1148,1148,4657,2021-09-21 15:18:58.653,-0.0463167826334635,
1149,1149,4661,2021-09-21 15:18:58.657,-0.0658893585205078,
1150,1150,4665,2021-09-21 15:18:58.661,0.057373046875,
1151,1151,4669,2021-09-21 15:18:58.665,-0.2145512898763021,
1152,1152,4673,2021-09-21 15:18:58.669,0.0289853413899739,
1153,1153,4677,2021-09-21 15:18:58.673,-0.1166884104410807,
1154,1154,4681,2021-09-21 15:18:58.677,-0.1595687866210937,
1155,1155,4685,2021-09-21 15:18:58.681,-0.0367546081542968,
1156,1156,4689,2021-09-21 15:18:58.685,-0.2979214986165365,
1157,1157,4693,2021-09-21 15:18:58.689,-0.0551319122314453,
1158,1158,4697,2021-09-21 15:18:58.693,-0.1943810780843099,
1159,1159,4701,2021-09-21 15:18:58.697,-0.2320321400960286,
1160,1160,4705,2021-09-21 15:18:58.701,-0.1083215077718099,
1161,1161,4709,2021-09-21 15:18:58.705,-0.3638108571370443,
1162,1162,4713,2021-09-21 15:18:58.709,-0.1056321461995442,
1163,1163,4717,2021-09-21 15:18:58.713,-0.2386061350504557,
1164,1164,4721,2021-09-21 15:18:58.717,-0.2716255187988282,
1165,1165,4725,2021-09-21 15:18:58.721,-0.1338704427083333,
1166,1166,4729,2021-09-21 15:18:58.725,-0.3756141662597657,
1167,1167,4733,2021-09-21 15:18:58.729,-0.121469497680664,
1168,1168,4737,2021-09-21 15:18:58.733,-0.2451801300048828,
1169,1169,4741,2021-09-21 15:18:58.737,-0.2665456136067708,
1170,1170,4745,2021-09-21 15:18:58.741,-0.1308822631835937,
1171,1171,4749,2021-09-21 15:18:58.745,-0.3699366251627604,
1172,1172,4753,2021-09-21 15:18:58.749,-0.1320775349934896,
1173,1173,4757,2021-09-21 15:18:58.753,-0.2563858032226563,
1174,1174,4761,2021-09-21 15:18:58.757,-0.2747631072998047,
1175,1175,4765,2021-09-21 15:18:58.761,-0.1331233978271484,
1176,1176,4769,2021-09-21 15:18:58.765,-0.3633626302083333,
1177,1177,4773,2021-09-21 15:18:58.769,-0.1226647694905599,
1178,1178,4777,2021-09-21 15:18:58.773,-0.2420425415039062,
1179,1179,4781,2021-09-21 15:18:58.777,-0.2517541249593099,
1180,1180,4785,2021-09-21 15:18:58.781,-0.1059309641520182,
1181,1181,4789,2021-09-21 15:18:58.785,-0.3533522288004557,
1182,1182,4793,2021-09-21 15:18:58.789,-0.1139990488688151,
1183,1183,4797,2021-09-21 15:18:58.793,-0.2499612172444661,
1184,1184,4801,2021-09-21 15:18:58.797,-0.2750619252522787,
1185,1185,4805,2021-09-21 15:18:58.801,-0.1346174875895182,
1186,1186,4809,2021-09-21 15:18:58.805,-0.3757635752360026,
1187,1187,4813,2021-09-21 15:18:58.809,-0.1356633504231771,
1188,1188,4817,2021-09-21 15:18:58.813,-0.2623621622721354,
1189,1189,4821,2021-09-21 15:18:58.817,-0.2779006958007813,
1190,1190,4825,2021-09-21 15:18:58.821,-0.1316293080647786,
1191,1191,4829,2021-09-21 15:18:58.825,-0.3706836700439453,
1192,1192,4833,2021-09-21 15:18:58.829,-0.1172860463460286,
1193,1193,4837,2021-09-21 15:18:58.833,-0.243536631266276,
1194,1194,4841,2021-09-21 15:18:58.837,-0.265798568725586,
1195,1195,4845,2021-09-21 15:18:58.841,-0.1284917195638021,
1196,1196,4849,2021-09-21 15:18:58.845,-0.3697872161865235,
1197,1197,4853,2021-09-21 15:18:58.849,-0.1204236348470052,
1198,1198,4857,2021-09-21 15:18:58.853,-0.2456283569335937,
1199,1199,4861,2021-09-21 15:18:58.857,-0.2647527058919271,
1200,1200,4865,2021-09-21 15:18:58.861,-0.1211706797281901,
1201,1201,4869,2021-09-21 15:18:58.865,-0.3669484456380208,
1202,1202,4873,2021-09-21 15:18:58.869,-0.114596684773763,
1203,1203,4877,2021-09-21 15:18:58.873,-0.2362155914306641,
1204,1204,4881,2021-09-21 15:18:58.877,-0.2608680725097657,
1205,1205,4885,2021-09-21 15:18:58.881,-0.1210212707519531,
1206,1206,4889,2021-09-21 15:18:58.885,-0.3705342610677083,
1207,1207,4893,2021-09-21 15:18:58.889,-0.1054827372233073,
1208,1208,4897,2021-09-21 15:18:58.893,-0.2105172475179036,
1209,1209,4901,2021-09-21 15:18:58.897,-0.2308368682861328,
1210,1210,4905,2021-09-21 15:18:58.901,-0.1010004679361979,
1211,1211,4909,2021-09-21 15:18:58.905,-0.3579839070638021,
1212,1212,4913,2021-09-21 15:18:58.909,-0.1154931386311849,
1213,1213,4917,2021-09-21 15:18:58.913,-0.2290439605712891,
1214,1214,4921,2021-09-21 15:18:58.917,-0.2530988057454427,
1215,1215,4925,2021-09-21 15:18:58.921,-0.1235612233479817,
1216,1216,4929,2021-09-21 15:18:58.925,-0.3768094380696615,
1217,1217,4933,2021-09-21 15:18:58.929,-0.1322269439697266,
1218,1218,4937,2021-09-21 15:18:58.933,-0.2432378133138021,
1219,1219,4941,2021-09-21 15:18:58.937,-0.2530988057454427,
1220,1220,4945,2021-09-21 15:18:58.941,-0.107574462890625,
1221,1221,4949,2021-09-21 15:18:58.945,-0.3560415903727214,
1222,1222,4953,2021-09-21 15:18:58.949,-0.1263999938964844,
1223,1223,4957,2021-09-21 15:18:58.953,-0.2409966786702474,
1224,1224,4961,2021-09-21 15:18:58.957,-0.2554893493652344,
1225,1225,4965,2021-09-21 15:18:58.961,-0.1181825002034505,
1226,1226,4969,2021-09-21 15:18:58.965,-0.3566392262776693,
1227,1227,4973,2021-09-21 15:18:58.969,-0.1117579142252604,
1228,1228,4977,2021-09-21 15:18:58.973,-0.2341238657633463,
1229,1229,4981,2021-09-21 15:18:58.977,-0.2536964416503907,
1230,1230,4985,2021-09-21 15:18:58.981,-0.107425053914388,
1231,1231,4989,2021-09-21 15:18:58.985,-0.3551451365152995,
1232,1232,4993,2021-09-21 15:18:58.989,-0.1183319091796875,
1233,1233,4997,2021-09-21 15:18:58.993,-0.250708262125651,
1234,1234,5001,2021-09-21 15:18:58.997,-0.2732690175374349,
1235,1235,5005,2021-09-21 15:18:59.001,-0.128939946492513,
1236,1236,5009,2021-09-21 15:18:59.005,-0.3760623931884766,
1237,1237,5013,2021-09-21 15:18:59.009,-0.136260986328125,
1238,1238,5017,2021-09-21 15:18:59.013,-0.2581787109375,
1239,1239,5021,2021-09-21 15:18:59.017,-0.2837276458740235,
1240,1240,5025,2021-09-21 15:18:59.021,-0.1252047220865885,
1241,1241,5029,2021-09-21 15:18:59.025,-0.3538004557291667,
1242,1242,5033,2021-09-21 15:18:59.029,-0.1015981038411458,
1243,1243,5037,2021-09-21 15:18:59.033,-0.2290439605712891,
1244,1244,5041,2021-09-21 15:18:59.037,-0.4059441884358724,
1245,1245,5045,2021-09-21 15:18:59.041,-0.1346174875895182,
1246,1246,5049,2021-09-21 15:18:59.045,-0.2962779998779297,
1247,1247,5053,2021-09-21 15:18:59.049,-0.1184813181559245,
1248,1248,5057,2021-09-21 15:18:59.053,-0.1162401835123698,
1249,1249,5061,2021-09-21 15:18:59.057,-0.2974732716878255,
1250,1250,5065,2021-09-21 15:18:59.061,-0.078589121500651,
1251,1251,5069,2021-09-21 15:18:59.065,-0.3125635782877604,
1252,1252,5073,2021-09-21 15:18:59.069,-0.1621087392171224,
1253,1253,5077,2021-09-21 15:18:59.073,-0.1520983378092448,
1254,1254,5081,2021-09-21 15:18:59.077,-0.3192869822184245,
1255,1255,5085,2021-09-21 15:18:59.081,-0.0769456227620442,
1256,1256,5089,2021-09-21 15:18:59.085,-0.3118165334065755,
1257,1257,5093,2021-09-21 15:18:59.089,-0.179290771484375,
1258,1258,5097,2021-09-21 15:18:59.093,-0.1885541280110677,
1259,1259,5101,2021-09-21 15:18:59.097,-0.3667990366617839,
1260,1260,5105,2021-09-21 15:18:59.101,-0.1358127593994141,
1261,1261,5109,2021-09-21 15:18:59.105,-0.3555933634440104,
1262,1262,5113,2021-09-21 15:18:59.109,-0.2043914794921875,
1263,1263,5117,2021-09-21 15:18:59.113,-0.1852671305338541,
1264,1264,5121,2021-09-21 15:18:59.117,-0.3433418273925782,
1265,1265,5125,2021-09-21 15:18:59.121,-0.0884501139322916,
1266,1266,5129,2021-09-21 15:18:59.125,-0.3027025858561198,
1267,1267,5133,2021-09-21 15:18:59.129,-0.1570288340250651,
1268,1268,5137,2021-09-21 15:18:59.133,-0.1628557840983073,
1269,1269,5141,2021-09-21 15:18:59.137,-0.3470770517985026,
1270,1270,5145,2021-09-21 15:18:59.141,-0.1190789540608724,
1271,1271,5149,2021-09-21 15:18:59.145,-0.3413995107014974,
1272,1272,5153,2021-09-21 15:18:59.149,-0.1924387613932291,
1273,1273,5157,2021-09-21 15:18:59.153,-0.1776472727457682,
1274,1274,5161,2021-09-21 15:18:59.157,-0.2926921844482422,
1275,1275,5165,2021-09-21 15:18:59.161,0.0522931416829427,
1276,1276,5169,2021-09-21 15:18:59.165,-0.0469144185384114,
1277,1277,5173,2021-09-21 15:18:59.169,0.1828765869140625,
1278,1278,5177,2021-09-21 15:18:59.173,0.2123101552327474,
1279,1279,5181,2021-09-21 15:18:59.177,-0.0531895955403645,
1280,1280,5185,2021-09-21 15:18:59.181,-0.0597635904947916,
1281,1281,5189,2021-09-21 15:18:59.185,-0.5789597829182943,
1282,1282,5193,2021-09-21 15:18:59.189,-0.6898212432861329,
1283,1283,5197,2021-09-21 15:18:59.193,-0.8257834116617839,
1284,1284,5201,2021-09-21 15:18:59.197,-0.9647337595621746,
1285,1285,5205,2021-09-21 15:18:59.201,-0.5701446533203126,
1286,1286,5209,2021-09-21 15:18:59.205,-0.5442969004313152,
1287,1287,5213,2021-09-21 15:18:59.209,-0.1734638214111328,
1288,1288,5217,2021-09-21 15:18:59.213,-0.0233078002929687,
1289,1289,5221,2021-09-21 15:18:59.217,-0.1446278889973958,
1290,1290,5225,2021-09-21 15:18:59.221,0.0868066151936849,
1291,1291,5229,2021-09-21 15:18:59.225,-0.1595687866210937,
1292,1292,5233,2021-09-21 15:18:59.229,-0.0363063812255859,
1293,1293,5237,2021-09-21 15:18:59.233,-0.0324217478434244,
1294,1294,5241,2021-09-21 15:18:59.237,-0.2164936065673828,
1295,1295,5245,2021-09-21 15:18:59.241,-0.0118033091227213,
1296,1296,5249,2021-09-21 15:18:59.245,-0.2415943145751953,
1297,1297,5253,2021-09-21 15:18:59.249,-0.1180330912272135,
1298,1298,5257,2021-09-21 15:18:59.253,-0.1284917195638021,
1299,1299,5261,2021-09-21 15:18:59.257,-0.2926921844482422,
1300,1300,5265,2021-09-21 15:18:59.261,-0.0679810841878255,
1301,1301,5269,2021-09-21 15:18:59.265,-0.2911980946858724,
1302,1302,5273,2021-09-21 15:18:59.269,-0.1534430185953776,
1303,1303,5277,2021-09-21 15:18:59.273,-0.1523971557617187,
1304,1304,5281,2021-09-21 15:18:59.277,-0.3239186604817708,
1305,1305,5285,2021-09-21 15:18:59.281,-0.085910161336263,
1306,1306,5289,2021-09-21 15:18:59.285,-0.315999984741211,
1307,1307,5293,2021-09-21 15:18:59.289,-0.1733144124348958,
1308,1308,5297,2021-09-21 15:18:59.293,-0.1812330881754557,
1309,1309,5301,2021-09-21 15:18:59.297,-0.3502146402994792,
1310,1310,5305,2021-09-21 15:18:59.301,-0.1063791910807291,
1311,1311,5309,2021-09-21 15:18:59.305,-0.330044428507487,
1312,1312,5313,2021-09-21 15:18:59.309,-0.1857153574625651,
1313,1313,5317,2021-09-21 15:18:59.313,-0.1822789510091146,
1314,1314,5321,2021-09-21 15:18:59.317,-0.3521569569905599,
1315,1315,5325,2021-09-21 15:18:59.321,-0.1165390014648437,
1316,1316,5329,2021-09-21 15:18:59.325,-0.3419971466064453,
1317,1317,5333,2021-09-21 15:18:59.329,-0.2002080281575521,
1318,1318,5337,2021-09-21 15:18:59.333,-0.1931858062744141,
1319,1319,5341,2021-09-21 15:18:59.337,-0.3485711415608724,
1320,1320,5345,2021-09-21 15:18:59.341,-0.0950241088867187,
1321,1321,5349,2021-09-21 15:18:59.345,-0.3142070770263672,
1322,1322,5353,2021-09-21 15:18:59.349,-0.171820322672526,
1323,1323,5357,2021-09-21 15:18:59.353,-0.1724179585774739,
1324,1324,5361,2021-09-21 15:18:59.357,-0.351111094156901,
1325,1325,5365,2021-09-21 15:18:59.361,-0.1186307271321614,
1326,1326,5369,2021-09-21 15:18:59.365,-0.3400548299153646,
1327,1327,5373,2021-09-21 15:18:59.369,-0.1813824971516927,
1328,1328,5377,2021-09-21 15:18:59.373,-0.1695791880289713,
1329,1329,5381,2021-09-21 15:18:59.377,-0.3388595581054688,
1330,1330,5385,2021-09-21 15:18:59.381,-0.107126235961914,
1331,1331,5389,2021-09-21 15:18:59.385,-0.3334808349609375,
1332,1332,5393,2021-09-21 15:18:59.389,-0.1800378163655599,
1333,1333,5397,2021-09-21 15:18:59.393,-0.1760037740071614,
1334,1334,5401,2021-09-21 15:18:59.397,-0.3472264607747396,
1335,1335,5405,2021-09-21 15:18:59.401,-0.1020463307698567,
1336,1336,5409,2021-09-21 15:18:59.405,-0.3248151143391927,
1337,1337,5413,2021-09-21 15:18:59.409,-0.1697285970052083,
1338,1338,5417,2021-09-21 15:18:59.413,-0.1613616943359375,
1339,1339,5421,2021-09-21 15:18:59.417,-0.3424453735351563,
1340,1340,5425,2021-09-21 15:18:59.421,-0.1105626424153645,
1341,1341,5429,2021-09-21 15:18:59.425,-0.3351243336995443,
1342,1342,5433,2021-09-21 15:18:59.429,-0.1786931355794271,
1343,1343,5437,2021-09-21 15:18:59.433,-0.1628557840983073,
1344,1344,5441,2021-09-21 15:18:59.437,-0.3345266977945964,
1345,1345,5445,2021-09-21 15:18:59.441,-0.1021957397460937,
1346,1346,5449,2021-09-21 15:18:59.445,-0.3327337900797526,
1347,1347,5453,2021-09-21 15:18:59.449,-0.1967716217041016,
1348,1348,5457,2021-09-21 15:18:59.453,-0.1510524749755859,
1349,1349,5461,2021-09-21 15:18:59.457,-0.3027025858561198,
1350,1350,5465,2021-09-21 15:18:59.461,-0.064245859781901,
1351,1351,5469,2021-09-21 15:18:59.465,-0.2904510498046875,
1352,1352,5473,2021-09-21 15:18:59.469,-0.157626469930013,
1353,1353,5477,2021-09-21 15:18:59.473,-0.1616605122884114,
1354,1354,5481,2021-09-21 15:18:59.477,-0.3315385182698568,
1355,1355,5485,2021-09-21 15:18:59.481,-0.093081792195638,
1356,1356,5489,2021-09-21 15:18:59.485,-0.3162988026936849,
1357,1357,5493,2021-09-21 15:18:59.489,-0.1671886444091797,
1358,1358,5497,2021-09-21 15:18:59.493,-0.1600170135498047,
1359,1359,5501,2021-09-21 15:18:59.497,-0.3408018747965495,
1360,1360,5505,2021-09-21 15:18:59.501,-0.1029427846272786,
1361,1361,5509,2021-09-21 15:18:59.505,-0.3273550669352214,
1362,1362,5513,2021-09-21 15:18:59.509,-0.1849683125813802,
1363,1363,5517,2021-09-21 15:18:59.513,-0.1816813151041666,
1364,1364,5521,2021-09-21 15:18:59.517,-0.3502146402994792,
1365,1365,5525,2021-09-21 15:18:59.521,-0.122067133585612,
1366,1366,5529,2021-09-21 15:18:59.525,-0.3364690144856771,
1367,1367,5533,2021-09-21 15:18:59.529,-0.1912434895833333,
1368,1368,5537,2021-09-21 15:18:59.533,-0.1698780059814453,
1369,1369,5541,2021-09-21 15:18:59.537,-0.3197352091471354,
1370,1370,5545,2021-09-21 15:18:59.541,-0.0866572062174479,
1371,1371,5549,2021-09-21 15:18:59.545,-0.3125635782877604,
1372,1372,5553,2021-09-21 15:18:59.549,-0.1846694946289062,
1373,1373,5557,2021-09-21 15:18:59.553,-0.1821295420328776,
1374,1374,5561,2021-09-21 15:18:59.557,-0.3390089670817057,
1375,1375,5565,2021-09-21 15:18:59.561,-0.1018969217936198,
1376,1376,5569,2021-09-21 15:18:59.565,-0.3049437204996745,
1377,1377,5573,2021-09-21 15:18:59.569,-0.1547876993815104,
1378,1378,5577,2021-09-21 15:18:59.573,-0.1535924275716146,
1379,1379,5581,2021-09-21 15:18:59.577,-0.329596201578776,
1380,1380,5585,2021-09-21 15:18:59.581,-0.1169872283935547,
1381,1381,5589,2021-09-21 15:18:59.585,-0.330343246459961,
1382,1382,5593,2021-09-21 15:18:59.589,-0.1798884073893229,
1383,1383,5597,2021-09-21 15:18:59.593,-0.1671886444091797,
1384,1384,5601,2021-09-21 15:18:59.597,-0.3189881642659505,
1385,1385,5605,2021-09-21 15:18:59.601,-0.0648434956868489,
1386,1386,5609,2021-09-21 15:18:59.605,-0.2995649973551432,
1387,1387,5613,2021-09-21 15:18:59.609,-0.1691309611002604,
1388,1388,5617,2021-09-21 15:18:59.613,-0.1766014099121094,
1389,1389,5621,2021-09-21 15:18:59.617,-0.3557427724202474,
1390,1390,5625,2021-09-21 15:18:59.621,-0.1117579142252604,
1391,1391,5629,2021-09-21 15:18:59.625,-0.3409512837727865,
1392,1392,5633,2021-09-21 15:18:59.629,-0.1836236317952474,
1393,1393,5637,2021-09-21 15:18:59.633,-0.171969731648763,
1394,1394,5641,2021-09-21 15:18:59.637,-0.3464794158935547,
1395,1395,5645,2021-09-21 15:18:59.641,-0.0956217447916666,
1396,1396,5649,2021-09-21 15:18:59.645,-0.3118165334065755,
1397,1397,5653,2021-09-21 15:18:59.649,-0.1552359263102213,
1398,1398,5657,2021-09-21 15:18:59.653,-0.1453749338785807,
1399,1399,5661,2021-09-21 15:18:59.657,-0.3176434834798177,
1400,1400,5665,2021-09-21 15:18:59.661,-0.0841172536214192,
1401,1401,5669,2021-09-21 15:18:59.665,-0.3269068400065104,
1402,1402,5673,2021-09-21 15:18:59.669,-0.1988633473714193,
1403,1403,5677,2021-09-21 15:18:59.673,-0.2003574371337891,
1404,1404,5681,2021-09-21 15:18:59.677,-0.3651555379231771,
1405,1405,5685,2021-09-21 15:18:59.681,-0.1186307271321614,
1406,1406,5689,2021-09-21 15:18:59.685,-0.3318373362223307,
1407,1407,5693,2021-09-21 15:18:59.689,-0.172119140625,
1408,1408,5697,2021-09-21 15:18:59.693,-0.1603158315022786,
1409,1409,5701,2021-09-21 15:18:59.697,-0.3304926554361979,
1410,1410,5705,2021-09-21 15:18:59.701,-0.0900936126708984,
1411,1411,5709,2021-09-21 15:18:59.705,-0.315701166788737,
1412,1412,5713,2021-09-21 15:18:59.709,-0.178991953531901,
1413,1413,5717,2021-09-21 15:18:59.713,-0.1771990458170573,
1414,1414,5721,2021-09-21 15:18:59.717,-0.3609720865885417,
1415,1415,5725,2021-09-21 15:18:59.721,-0.1441796620686849,
1416,1416,5729,2021-09-21 15:18:59.725,-0.3458817799886068,
1417,1417,5733,2021-09-21 15:18:59.729,-0.1367092132568359,
1418,1418,5737,2021-09-21 15:18:59.733,-0.0301806131998697,
1419,1419,5741,2021-09-21 15:18:59.737,-0.0750033060709635,
1420,1420,5745,2021-09-21 15:18:59.741,0.2536964416503907,
1421,1421,5749,2021-09-21 15:18:59.745,0.0844160715738932,
1422,1422,5753,2021-09-21 15:18:59.749,0.1399962107340495,
1423,1423,5757,2021-09-21 15:18:59.753,-0.0875536600748698,
1424,1424,5761,2021-09-21 15:18:59.757,-0.5549049377441407,
1425,1425,5765,2021-09-21 15:18:59.761,-0.5798562367757162,
1426,1426,5769,2021-09-21 15:18:59.765,-0.9530798594156902,
1427,1427,5773,2021-09-21 15:18:59.769,-0.8443101247151694,
1428,1428,5777,2021-09-21 15:18:59.773,-0.6811555226643881,
1429,1429,5781,2021-09-21 15:18:59.777,-0.6042098999023439,
1430,1430,5785,2021-09-21 15:18:59.781,-0.1199754079182942,
1431,1431,5789,2021-09-21 15:18:59.785,-0.1819801330566406,
1432,1432,5793,2021-09-21 15:18:59.789,0.0245030721028645,
1433,1433,5797,2021-09-21 15:18:59.793,0.0313758850097656,
1434,1434,5801,2021-09-21 15:18:59.797,-0.1698780059814453,
1435,1435,5805,2021-09-21 15:18:59.801,0.0410874684651692,
1436,1436,5809,2021-09-21 15:18:59.805,-0.1987139383951823,
1437,1437,5813,2021-09-21 15:18:59.809,-0.0555801391601562,
1438,1438,5817,2021-09-21 15:18:59.813,-0.056775410970052,
1439,1439,5821,2021-09-21 15:18:59.817,-0.2423413594563802,
1440,1440,5825,2021-09-21 15:18:59.821,-0.0113550821940104,
1441,1441,5829,2021-09-21 15:18:59.825,-0.2614657084147135,
1442,1442,5833,2021-09-21 15:18:59.829,-0.1420879364013672,
1443,1443,5837,2021-09-21 15:18:59.833,-0.150454839070638,
1444,1444,5841,2021-09-21 15:18:59.837,-0.3309408823649089,
1445,1445,5845,2021-09-21 15:18:59.841,-0.0924841562906901,
1446,1446,5849,2021-09-21 15:18:59.845,-0.3183905283610026,
1447,1447,5853,2021-09-21 15:18:59.849,-0.1785437266031901,
1448,1448,5857,2021-09-21 15:18:59.853,-0.1800378163655599,
1449,1449,5861,2021-09-21 15:18:59.857,-0.3521569569905599,
1450,1450,5865,2021-09-21 15:18:59.861,-0.1162401835123698,
1451,1451,5869,2021-09-21 15:18:59.865,-0.3330326080322266,
1452,1452,5873,2021-09-21 15:18:59.869,-0.1733144124348958,
1453,1453,5877,2021-09-21 15:18:59.873,-0.1689815521240234,
1454,1454,5881,2021-09-21 15:18:59.877,-0.4567432403564453,
1455,1455,5885,2021-09-21 15:18:59.881,-0.1957257588704427,
1456,1456,5889,2021-09-21 15:18:59.885,-0.2465248107910156,
1457,1457,5893,2021-09-21 15:18:59.889,-0.1942316691080729,
1458,1458,5897,2021-09-21 15:18:59.893,-0.0339158376057942,
1459,1459,5901,2021-09-21 15:18:59.897,-0.3046449025472005,
1460,1460,5905,2021-09-21 15:18:59.901,-0.0894959767659505,
1461,1461,5909,2021-09-21 15:18:59.905,-0.2381579081217448,
1462,1462,5913,2021-09-21 15:18:59.909,-0.2698326110839844,
1463,1463,5917,2021-09-21 15:18:59.913,-0.1314798990885416,
1464,1464,5921,2021-09-21 15:18:59.917,-0.3850269317626953,
1465,1465,5925,2021-09-21 15:18:59.921,-0.1377550760904948,
1466,1466,5929,2021-09-21 15:18:59.925,-0.2632586161295573,
1467,1467,5933,2021-09-21 15:18:59.929,-0.2820841471354167,
1468,1468,5937,2021-09-21 15:18:59.933,-0.1328245798746745,
1469,1469,5941,2021-09-21 15:18:59.937,-0.3771082560221354,
1470,1470,5945,2021-09-21 15:18:59.941,-0.1356633504231771,
1471,1471,5949,2021-09-21 15:18:59.945,-0.2635574340820313,
1472,1472,5953,2021-09-21 15:18:59.949,-0.2816359202067057,
1473,1473,5957,2021-09-21 15:18:59.953,-0.1332728068033854,
1474,1474,5961,2021-09-21 15:18:59.957,-0.3738212585449219,
1475,1475,5965,2021-09-21 15:18:59.961,-0.1263999938964844,
1476,1476,5969,2021-09-21 15:18:59.965,-0.2492141723632812,
1477,1477,5973,2021-09-21 15:18:59.969,-0.2684879302978516,
1478,1478,5977,2021-09-21 15:18:59.973,-0.1162401835123698,
1479,1479,5981,2021-09-21 15:18:59.977,-0.358282725016276,
1480,1480,5985,2021-09-21 15:18:59.981,-0.1105626424153645,
1481,1481,5989,2021-09-21 15:18:59.985,-0.2351697285970052,
1482,1482,5993,2021-09-21 15:18:59.989,-0.2672926584879557,
1483,1483,5997,2021-09-21 15:18:59.993,-0.1405938466389974,
1484,1484,6001,2021-09-21 15:18:59.997,-0.3809928894042969,
1485,1485,6005,2021-09-21 15:19:00.001,-0.1196765899658203,
1486,1486,6009,2021-09-21 15:19:00.005,-0.2372614542643229,
1487,1487,6013,2021-09-21 15:19:00.009,-0.2595233917236328,
1488,1488,6017,2021-09-21 15:19:00.013,-0.1181825002034505,
1489,1489,6021,2021-09-21 15:19:00.017,-0.3500652313232422,
1490,1490,6025,2021-09-21 15:19:00.021,-0.1041380564371745,
1491,1491,6029,2021-09-21 15:19:00.025,-0.2233664194742838,
1492,1492,6033,2021-09-21 15:19:00.029,-0.2406978607177734,
1493,1493,6037,2021-09-21 15:19:00.033,-0.107425053914388,
1494,1494,6041,2021-09-21 15:19:00.037,-0.3880151112874349,
1495,1495,6045,2021-09-21 15:19:00.041,-0.208126703898112,
1496,1496,6049,2021-09-21 15:19:00.045,-0.1374562581380208,
1497,1497,6053,2021-09-21 15:19:00.049,-0.2599716186523438,
1498,1498,6057,2021-09-21 15:19:00.053,-0.0050799051920572,
1499,1499,6061,2021-09-21 15:19:00.057,-0.2542940775553385,
1500,1500,6065,2021-09-21 15:19:00.061,-0.1476160685221354,
1501,1501,6069,2021-09-21 15:19:00.065,-0.1700274149576823,
1502,1502,6073,2021-09-21 15:19:00.069,-0.3594779968261719,
1503,1503,6077,2021-09-21 15:19:00.073,-0.1126543680826823,
1504,1504,6081,2021-09-21 15:19:00.077,-0.3263092041015625,
1505,1505,6085,2021-09-21 15:19:00.081,-0.1897493998209635,
1506,1506,6089,2021-09-21 15:19:00.085,-0.1915423075358073,
1507,1507,6093,2021-09-21 15:19:00.089,-0.3632132212320964,
1508,1508,6097,2021-09-21 15:19:00.093,-0.1150449117024739,
1509,1509,6101,2021-09-21 15:19:00.097,-0.3434912363688151,
1510,1510,6105,2021-09-21 15:19:00.101,-0.1979668935139974,
1511,1511,6109,2021-09-21 15:19:00.105,-0.18646240234375,
1512,1512,6113,2021-09-21 15:19:00.109,-0.3467782338460287,
1513,1513,6117,2021-09-21 15:19:00.113,-0.0980122884114583,
1514,1514,6121,2021-09-21 15:19:00.117,-0.3197352091471354,
1515,1515,6125,2021-09-21 15:19:00.121,-0.1716709136962891,
1516,1516,6129,2021-09-21 15:19:00.125,-0.1697285970052083,
1517,1517,6133,2021-09-21 15:19:00.129,-0.3533522288004557,
1518,1518,6137,2021-09-21 15:19:00.133,-0.1027933756510416,
1519,1519,6141,2021-09-21 15:19:00.137,-0.3278032938639323,
1520,1520,6145,2021-09-21 15:19:00.141,-0.1846694946289062,
1521,1521,6149,2021-09-21 15:19:00.145,-0.1773484547932942,
1522,1522,6153,2021-09-21 15:19:00.149,-0.3333314259847005,
1523,1523,6157,2021-09-21 15:19:00.153,-0.0917371114095052,
1524,1524,6161,2021-09-21 15:19:00.157,-0.3106212615966797,
1525,1525,6165,2021-09-21 15:19:00.161,-0.1665910085042317,
1526,1526,6169,2021-09-21 15:19:00.165,-0.1668898264567057,
1527,1527,6173,2021-09-21 15:19:00.169,-0.3378136952718099,
1528,1528,6177,2021-09-21 15:19:00.173,-0.0908406575520833,
1529,1529,6181,2021-09-21 15:19:00.177,-0.3176434834798177,
1530,1530,6185,2021-09-21 15:19:00.181,-0.1757049560546875,
1531,1531,6189,2021-09-21 15:19:00.185,-0.1782449086507161,
1532,1532,6193,2021-09-21 15:19:00.189,-0.3425947825113932,
1533,1533,6197,2021-09-21 15:19:00.193,-0.0848642985026041,
1534,1534,6201,2021-09-21 15:19:00.197,-0.308678944905599,
1535,1535,6205,2021-09-21 15:19:00.201,-0.1688321431477864,
1536,1536,6209,2021-09-21 15:19:00.205,-0.1709238688151041,
1537,1537,6213,2021-09-21 15:19:00.209,-0.3403536478678385,
1538,1538,6217,2021-09-21 15:19:00.213,-0.1029427846272786,
1539,1539,6221,2021-09-21 15:19:00.217,-0.3322855631510417,
1540,1540,6225,2021-09-21 15:19:00.221,-0.1733144124348958,
1541,1541,6229,2021-09-21 15:19:00.225,-0.1658439636230469,
1542,1542,6233,2021-09-21 15:19:00.229,-0.3357219696044922,
1543,1543,6237,2021-09-21 15:19:00.233,-0.0678316752115885,
1544,1544,6241,2021-09-21 15:19:00.237,-0.2907498677571615,
1545,1545,6245,2021-09-21 15:19:00.241,-0.1486619313557942,
1546,1546,6249,2021-09-21 15:19:00.245,-0.1565806070963541,
1547,1547,6253,2021-09-21 15:19:00.249,-0.3572368621826172,
1548,1548,6257,2021-09-21 15:19:00.253,-0.1368586222330729,
1549,1549,6261,2021-09-21 15:19:00.257,-0.3651555379231771,
1550,1550,6265,2021-09-21 15:19:00.261,-0.2276992797851562,
1551,1551,6269,2021-09-21 15:19:00.265,-0.2120113372802734,
1552,1552,6273,2021-09-21 15:19:00.269,-0.3457323710123698,
1553,1553,6277,2021-09-21 15:19:00.273,-0.0821749369303385,
1554,1554,6281,2021-09-21 15:19:00.277,-0.2971744537353516,
1555,1555,6285,2021-09-21 15:19:00.281,-0.1580746968587239,
1556,1556,6289,2021-09-21 15:19:00.285,-0.1582241058349609,
1557,1557,6293,2021-09-21 15:19:00.289,-0.3192869822184245,
1558,1558,6297,2021-09-21 15:19:00.293,-0.071566899617513,
1559,1559,6301,2021-09-21 15:19:00.297,-0.2931404113769532,
1560,1560,6305,2021-09-21 15:19:00.301,-0.1588217417399088,
1561,1561,6309,2021-09-21 15:19:00.305,-0.1748085021972656,
1562,1562,6313,2021-09-21 15:19:00.309,-0.3666496276855469,
1563,1563,6317,2021-09-21 15:19:00.313,-0.093081792195638,
1564,1564,6321,2021-09-21 15:19:00.317,-0.2433872222900391,
1565,1565,6325,2021-09-21 15:19:00.321,0.0119527180989583,
1566,1566,6329,2021-09-21 15:19:00.325,0.1414903004964192,
1567,1567,6333,2021-09-21 15:19:00.329,0.0395933787027994,
1568,1568,6337,2021-09-21 15:19:00.333,0.2525011698404948,
1569,1569,6341,2021-09-21 15:19:00.337,-0.1266988118489583,
1570,1570,6345,2021-09-21 15:19:00.341,-0.2677408854166667,
1571,1571,6349,2021-09-21 15:19:00.345,-0.5414581298828126,
1572,1572,6353,2021-09-21 15:19:00.349,-0.9196122487386068,
1573,1573,6357,2021-09-21 15:19:00.353,-0.7858912150065105,
1574,1574,6361,2021-09-21 15:19:00.357,-0.9202098846435548,
1575,1575,6365,2021-09-21 15:19:00.361,-0.5782127380371095,
1576,1576,6369,2021-09-21 15:19:00.365,-0.2889569600423177,
1577,1577,6373,2021-09-21 15:19:00.369,-0.2559375762939453,
1578,1578,6377,2021-09-21 15:19:00.373,0.0809796651204427,
1579,1579,6381,2021-09-21 15:19:00.377,-0.1138496398925781,
1580,1580,6385,2021-09-21 15:19:00.381,0.0150903065999348,
1581,1581,6389,2021-09-21 15:19:00.385,0.0029881795247395,
1582,1582,6393,2021-09-21 15:19:00.389,-0.1922893524169922,
1583,1583,6397,2021-09-21 15:19:00.393,0.0461673736572265,
1584,1584,6401,2021-09-21 15:19:00.397,-0.2045408884684245,
1585,1585,6405,2021-09-21 15:19:00.401,-0.0942770640055338,
1586,1586,6409,2021-09-21 15:19:00.405,-0.099954605102539,
1587,1587,6413,2021-09-21 15:19:00.409,-0.2792453765869141,
1588,1588,6417,2021-09-21 15:19:00.413,-0.0394439697265625,
1589,1589,6421,2021-09-21 15:19:00.417,-0.2825323740641276,
1590,1590,6425,2021-09-21 15:19:00.421,-0.1659933725992838,
1591,1591,6429,2021-09-21 15:19:00.425,-0.1695791880289713,
1592,1592,6433,2021-09-21 15:19:00.429,-0.336767832438151,
1593,1593,6437,2021-09-21 15:19:00.433,-0.0933806101481119,
1594,1594,6441,2021-09-21 15:19:00.437,-0.3263092041015625,
1595,1595,6445,2021-09-21 15:19:00.441,-0.1975186665852865,
1596,1596,6449,2021-09-21 15:19:00.445,-0.1951281229654948,
1597,1597,6453,2021-09-21 15:19:00.449,-0.3536510467529297,
1598,1598,6457,2021-09-21 15:19:00.453,-0.0947252909342448,
1599,1599,6461,2021-09-21 15:19:00.457,-0.3149541219075521,
1600,1600,6465,2021-09-21 15:19:00.461,-0.178991953531901,
1601,1601,6469,2021-09-21 15:19:00.465,-0.1674874623616536,
1602,1602,6473,2021-09-21 15:19:00.469,-0.3485711415608724,
1603,1603,6477,2021-09-21 15:19:00.473,-0.1126543680826823,
1604,1604,6481,2021-09-21 15:19:00.477,-0.3243668874104818,
1605,1605,6485,2021-09-21 15:19:00.481,-0.2064832051595052,
1606,1606,6489,2021-09-21 15:19:00.485,-0.1982657114664713,
1607,1607,6493,2021-09-21 15:19:00.489,-0.3430430094401042,
1608,1608,6497,2021-09-21 15:19:00.493,-0.0995063781738281,
1609,1609,6501,2021-09-21 15:19:00.497,-0.3177928924560547,
1610,1610,6505,2021-09-21 15:19:00.501,-0.1785437266031901,
1611,1611,6509,2021-09-21 15:19:00.505,-0.1668898264567057,
1612,1612,6513,2021-09-21 15:19:00.509,-0.3455829620361328,
1613,1613,6517,2021-09-21 15:19:00.513,-0.1208718617757161,
1614,1614,6521,2021-09-21 15:19:00.517,-0.3276538848876953,
1615,1615,6525,2021-09-21 15:19:00.521,-0.1807848612467448,
1616,1616,6529,2021-09-21 15:19:00.525,-0.1640510559082031,
1617,1617,6533,2021-09-21 15:19:00.529,-0.3264586130777995,
1618,1618,6537,2021-09-21 15:19:00.533,-0.0875536600748698,
1619,1619,6541,2021-09-21 15:19:00.537,-0.3146553039550782,
1620,1620,6545,2021-09-21 15:19:00.541,-0.2002080281575521,
1621,1621,6549,2021-09-21 15:19:00.545,-0.1954269409179687,
1622,1622,6553,2021-09-21 15:19:00.549,-0.3542486826578776,
1623,1623,6557,2021-09-21 15:19:00.553,-0.1123555501302083,
1624,1624,6561,2021-09-21 15:19:00.557,-0.3168964385986328,
1625,1625,6565,2021-09-21 15:19:00.561,-0.1565806070963541,
1626,1626,6569,2021-09-21 15:19:00.565,-0.1349163055419922,
1627,1627,6573,2021-09-21 15:19:00.569,-0.3222751617431641,
1628,1628,6577,2021-09-21 15:19:00.573,-0.1041380564371745,
1629,1629,6581,2021-09-21 15:19:00.577,-0.3505134582519532,
1630,1630,6585,2021-09-21 15:19:00.581,-0.2036444346110026,
1631,1631,6589,2021-09-21 15:19:00.585,-0.1703262329101562,
1632,1632,6593,2021-09-21 15:19:00.589,-0.330193837483724,
1633,1633,6597,2021-09-21 15:19:00.593,-0.1163895924886067,
1634,1634,6601,2021-09-21 15:19:00.597,-0.3416983286539714,
1635,1635,6605,2021-09-21 15:19:00.601,-0.193634033203125,
1636,1636,6609,2021-09-21 15:19:00.605,-0.1686827341715495,
1637,1637,6613,2021-09-21 15:19:00.609,-0.3284009297688802,
1638,1638,6617,2021-09-21 15:19:00.613,-0.078439712524414,
1639,1639,6621,2021-09-21 15:19:00.617,-0.3024037679036458,
1640,1640,6625,2021-09-21 15:19:00.621,-0.1774978637695312,
1641,1641,6629,2021-09-21 15:19:00.625,-0.1653957366943359,
1642,1642,6633,2021-09-21 15:19:00.629,-0.3200340270996094,
1643,1643,6637,2021-09-21 15:19:00.633,-0.0718657175699869,
1644,1644,6641,2021-09-21 15:19:00.637,-0.2904510498046875,
1645,1645,6645,2021-09-21 15:19:00.641,-0.1737626393636067,
1646,1646,6649,2021-09-21 15:19:00.645,-0.1561323801676432,
1647,1647,6653,2021-09-21 15:19:00.649,-0.3236198425292969,
1648,1648,6657,2021-09-21 15:19:00.653,-0.0869560241699218,
1649,1649,6661,2021-09-21 15:19:00.657,-0.3179423014322917,
1650,1650,6665,2021-09-21 15:19:00.661,-0.1912434895833333,
1651,1651,6669,2021-09-21 15:19:00.665,-0.1627063751220703,
1652,1652,6673,2021-09-21 15:19:00.669,-0.329745610555013,
1653,1653,6677,2021-09-21 15:19:00.673,-0.0850137074788411,
1654,1654,6681,2021-09-21 15:19:00.677,-0.3133106231689453,
1655,1655,6685,2021-09-21 15:19:00.681,-0.186312993367513,
1656,1656,6689,2021-09-21 15:19:00.685,-0.1774978637695312,
1657,1657,6693,2021-09-21 15:19:00.689,-0.3469276428222657,
1658,1658,6697,2021-09-21 15:19:00.693,-0.1056321461995442,
1659,1659,6701,2021-09-21 15:19:00.697,-0.3243668874104818,
1660,1660,6705,2021-09-21 15:19:00.701,-0.1918411254882812,
1661,1661,6709,2021-09-21 15:19:00.705,-0.1710732777913411,
1662,1662,6713,2021-09-21 15:19:00.709,-0.3419971466064453,
1663,1663,6717,2021-09-21 15:19:00.713,-0.1039886474609375,
1664,1664,6721,2021-09-21 15:19:00.717,-0.3315385182698568,
1665,1665,6725,2021-09-21 15:19:00.721,-0.1921399434407552,
1666,1666,6729,2021-09-21 15:19:00.725,-0.1806354522705078,
1667,1667,6733,2021-09-21 15:19:00.729,-0.3485711415608724,
1668,1668,6737,2021-09-21 15:19:00.733,-0.1018969217936198,
1669,1669,6741,2021-09-21 15:19:00.737,-0.3207810719807943,
1670,1670,6745,2021-09-21 15:19:00.741,-0.1783943176269531,
1671,1671,6749,2021-09-21 15:19:00.745,-0.1597181955973307,
1672,1672,6753,2021-09-21 15:19:00.749,-0.3258609771728516,
1673,1673,6757,2021-09-21 15:19:00.753,-0.078290303548177,
1674,1674,6761,2021-09-21 15:19:00.757,-0.3046449025472005,
1675,1675,6765,2021-09-21 15:19:00.761,-0.171820322672526,
1676,1676,6769,2021-09-21 15:19:00.765,-0.1642004648844401,
1677,1677,6773,2021-09-21 15:19:00.769,-0.3467782338460287,
1678,1678,6777,2021-09-21 15:19:00.773,-0.1253541310628255,
1679,1679,6781,2021-09-21 15:19:00.777,-0.3357219696044922,
1680,1680,6785,2021-09-21 15:19:00.781,-0.1884047190348307,
1681,1681,6789,2021-09-21 15:19:00.785,-0.164798100789388,
1682,1682,6793,2021-09-21 15:19:00.789,-0.3289985656738282,
1683,1683,6797,2021-09-21 15:19:00.793,-0.092633565266927,
1684,1684,6801,2021-09-21 15:19:00.797,-0.3043460845947266,
1685,1685,6805,2021-09-21 15:19:00.801,-0.1697285970052083,
1686,1686,6809,2021-09-21 15:19:00.805,-0.1652463277180989,
1687,1687,6813,2021-09-21 15:19:00.809,-0.3469276428222657,
1688,1688,6817,2021-09-21 15:19:00.813,-0.0963687896728515,
1689,1689,6821,2021-09-21 15:19:00.817,-0.2965768178304037,
1690,1690,6825,2021-09-21 15:19:00.821,-0.1477654774983724,
1691,1691,6829,2021-09-21 15:19:00.825,-0.1467196146647135,
1692,1692,6833,2021-09-21 15:19:00.829,-0.3312397003173828,
1693,1693,6837,2021-09-21 15:19:00.833,-0.0909900665283203,
1694,1694,6841,2021-09-21 15:19:00.837,-0.3079319000244141,
1695,1695,6845,2021-09-21 15:19:00.841,-0.1881059010823567,
1696,1696,6849,2021-09-21 15:19:00.845,-0.1788425445556641,
1697,1697,6853,2021-09-21 15:19:00.849,-0.351260503133138,
1698,1698,6857,2021-09-21 15:19:00.853,-0.1180330912272135,
1699,1699,6861,2021-09-21 15:19:00.857,-0.3503640492757162,
1700,1700,6865,2021-09-21 15:19:00.861,-0.2200794219970703,
1701,1701,6869,2021-09-21 15:19:00.865,-0.1913928985595703,
1702,1702,6873,2021-09-21 15:19:00.869,-0.3452841440836589,
1703,1703,6877,2021-09-21 15:19:00.873,-0.0989087422688802,
1704,1704,6881,2021-09-21 15:19:00.877,-0.3221257527669271,
1705,1705,6885,2021-09-21 15:19:00.881,-0.1878070831298828,
1706,1706,6889,2021-09-21 15:19:00.885,-0.1594193776448567,
1707,1707,6893,2021-09-21 15:19:00.889,-0.3180917104085287,
1708,1708,6897,2021-09-21 15:19:00.893,-0.0769456227620442,
1709,1709,6901,2021-09-21 15:19:00.897,-0.3142070770263672,
1710,1710,6905,2021-09-21 15:19:00.901,-0.2064832051595052,
1711,1711,6909,2021-09-21 15:19:00.905,-0.2012538909912109,
1712,1712,6913,2021-09-21 15:19:00.909,-0.3376642862955729,
1713,1713,6917,2021-09-21 15:19:00.913,-0.0198713938395182,
1714,1714,6921,2021-09-21 15:19:00.917,-0.1325257619222005,
1715,1715,6925,2021-09-21 15:19:00.921,0.0989087422688802,
1716,1716,6929,2021-09-21 15:19:00.925,0.2034950256347656,
1717,1717,6933,2021-09-21 15:19:00.929,0.0325711568196614,
1718,1718,6937,2021-09-21 15:19:00.933,0.1114590962727864,
1719,1719,6941,2021-09-21 15:19:00.937,-0.3757635752360026,
1720,1720,6945,2021-09-21 15:19:00.941,-0.5242760976155599,
1721,1721,6949,2021-09-21 15:19:00.945,-0.7264264424641927,
1722,1722,6953,2021-09-21 15:19:00.949,-0.9849039713541669,
1723,1723,6957,2021-09-21 15:19:00.953,-0.6987857818603517,
1724,1724,6961,2021-09-21 15:19:00.957,-0.6943035125732423,
1725,1725,6965,2021-09-21 15:19:00.961,-0.3098742167154948,
1726,1726,6969,2021-09-21 15:19:00.965,-0.0944264729817708,
1727,1727,6973,2021-09-21 15:19:00.969,-0.1671886444091797,
1728,1728,6977,2021-09-21 15:19:00.973,0.093081792195638,
1729,1729,6981,2021-09-21 15:19:00.977,-0.1373068491617838,
1730,1730,6985,2021-09-21 15:19:00.981,-0.0277900695800781,
1731,1731,6989,2021-09-21 15:19:00.985,-0.0345134735107421,
1732,1732,6993,2021-09-21 15:19:00.989,-0.2124595642089844,
1733,1733,6997,2021-09-21 15:19:00.993,0.0197219848632812,
1734,1734,7001,2021-09-21 15:19:00.997,-0.2158959706624349,
1735,1735,7005,2021-09-21 15:19:01.001,-0.0891971588134765,
1736,1736,7009,2021-09-21 15:19:01.005,-0.0966676076253255,
1737,1737,7013,2021-09-21 15:19:01.009,-0.2971744537353516,
1738,1738,7017,2021-09-21 15:19:01.013,-0.0832207997639974,
1739,1739,7021,2021-09-21 15:19:01.017,-0.3097248077392578,
1740,1740,7025,2021-09-21 15:19:01.021,-0.1692803700764974,
1741,1741,7029,2021-09-21 15:19:01.025,-0.1691309611002604,
1742,1742,7033,2021-09-21 15:19:01.029,-0.3500652313232422,
1743,1743,7037,2021-09-21 15:19:01.033,-0.1183319091796875,
1744,1744,7041,2021-09-21 15:19:01.037,-0.329596201578776,
1745,1745,7045,2021-09-21 15:19:01.041,-0.3251139322916667,
1746,1746,7049,2021-09-21 15:19:01.045,-0.1184813181559245,
1747,1747,7053,2021-09-21 15:19:01.049,-0.3091271718343099,
1748,1748,7057,2021-09-21 15:19:01.053,-0.0591659545898437,
1749,1749,7061,2021-09-21 15:19:01.057,-0.1843706766764323,
1750,1750,7065,2021-09-21 15:19:01.061,-0.2232170104980469,
1751,1751,7069,2021-09-21 15:19:01.065,-0.1104132334391276,
1752,1752,7073,2021-09-21 15:19:01.069,-0.359029769897461,
1753,1753,7077,2021-09-21 15:19:01.073,-0.1346174875895182,
1754,1754,7081,2021-09-21 15:19:01.077,-0.2720737457275391,
1755,1755,7085,2021-09-21 15:19:01.081,-0.2903016408284505,
1756,1756,7089,2021-09-21 15:19:01.085,-0.1283423105875651,
1757,1757,7093,2021-09-21 15:19:01.089,-0.3742694854736328,
1758,1758,7097,2021-09-21 15:19:01.093,-0.1240094502766927,
1759,1759,7101,2021-09-21 15:19:01.097,-0.2565352121988932,
1760,1760,7105,2021-09-21 15:19:01.101,-0.2817853291829427,
1761,1761,7109,2021-09-21 15:19:01.105,-0.1395479838053385,
1762,1762,7113,2021-09-21 15:19:01.109,-0.3921985626220703,
1763,1763,7117,2021-09-21 15:19:01.113,-0.1358127593994141,
1764,1764,7121,2021-09-21 15:19:01.117,-0.257879892985026,
1765,1765,7125,2021-09-21 15:19:01.121,-0.2790959676106771,
1766,1766,7129,2021-09-21 15:19:01.125,-0.12908935546875,
1767,1767,7133,2021-09-21 15:19:01.129,-0.3760623931884766,
1768,1768,7137,2021-09-21 15:19:01.133,-0.1205730438232422,
1769,1769,7141,2021-09-21 15:19:01.137,-0.2445824940999349,
1770,1770,7145,2021-09-21 15:19:01.141,-0.2644538879394532,
1771,1771,7149,2021-09-21 15:19:01.145,-0.1159413655598958,
1772,1772,7153,2021-09-21 15:19:01.149,-0.3653049468994141,
1773,1773,7157,2021-09-21 15:19:01.153,-0.107275644938151,
1774,1774,7161,2021-09-21 15:19:01.157,-0.2351697285970052,
1775,1775,7165,2021-09-21 15:19:01.161,-0.2629597981770833,
1776,1776,7169,2021-09-21 15:19:01.165,-0.1139990488688151,
1777,1777,7173,2021-09-21 15:19:01.169,-0.3636614481608073,
1778,1778,7177,2021-09-21 15:19:01.173,-0.1156425476074218,
1779,1779,7181,2021-09-21 15:19:01.177,-0.2493635813395182,
1780,1780,7185,2021-09-21 15:19:01.181,-0.2705796559651693,
1781,1781,7189,2021-09-21 15:19:01.185,-0.1165390014648437,
1782,1782,7193,2021-09-21 15:19:01.189,-0.3690401713053385,
1783,1783,7197,2021-09-21 15:19:01.193,-0.107425053914388,
1784,1784,7201,2021-09-21 15:19:01.197,-0.2359167734781901,
1785,1785,7205,2021-09-21 15:19:01.201,-0.2628103892008464,
1786,1786,7209,2021-09-21 15:19:01.205,-0.1113096872965495,
1787,1787,7213,2021-09-21 15:19:01.209,-0.3676954905192057,
1788,1788,7217,2021-09-21 15:19:01.213,-0.107574462890625,
1789,1789,7221,2021-09-21 15:19:01.217,-0.2314345041910807,
1790,1790,7225,2021-09-21 15:19:01.221,-0.2589257558186849,
1791,1791,7229,2021-09-21 15:19:01.225,-0.1092179616292317,
1792,1792,7233,2021-09-21 15:19:01.229,-0.3672472635904948,
1793,1793,7237,2021-09-21 15:19:01.233,-0.1125049591064453,
1794,1794,7241,2021-09-21 15:19:01.237,-0.2335262298583984,
1795,1795,7245,2021-09-21 15:19:01.241,-0.2526505788167318,
1796,1796,7249,2021-09-21 15:19:01.245,-0.1015981038411458,
1797,1797,7253,2021-09-21 15:19:01.249,-0.3542486826578776,
1798,1798,7257,2021-09-21 15:19:01.253,-0.1201248168945312,
1799,1799,7261,2021-09-21 15:19:01.257,-0.2527999877929688,
1800,1800,7265,2021-09-21 15:19:01.261,-0.27252197265625,
1801,1801,7269,2021-09-21 15:19:01.265,-0.1226647694905599,
1802,1802,7273,2021-09-21 15:19:01.269,-0.3672472635904948,
1803,1803,7277,2021-09-21 15:19:01.273,-0.1258023579915364,
1804,1804,7281,2021-09-21 15:19:01.277,-0.2414449055989583,
1805,1805,7285,2021-09-21 15:19:01.281,-0.2544434865315755,
1806,1806,7289,2021-09-21 15:19:01.285,-0.1014486948649088,
1807,1807,7293,2021-09-21 15:19:01.289,-0.3497664133707682,
1808,1808,7297,2021-09-21 15:19:01.293,-0.100104014078776,
1809,1809,7301,2021-09-21 15:19:01.297,-0.2389049530029297,
1810,1810,7305,2021-09-21 15:19:01.301,-0.265499750773112,
1811,1811,7309,2021-09-21 15:19:01.305,-0.1116085052490234,
1812,1812,7313,2021-09-21 15:19:01.309,-0.3778553009033203,
1813,1813,7317,2021-09-21 15:19:01.313,-0.1278940836588541,
1814,1814,7321,2021-09-21 15:19:01.317,-0.2541446685791016,
1815,1815,7325,2021-09-21 15:19:01.321,-0.272372563680013,
1816,1816,7329,2021-09-21 15:19:01.325,-0.121618906656901,
1817,1817,7333,2021-09-21 15:19:01.329,-0.3703848520914714,
1818,1818,7337,2021-09-21 15:19:01.333,-0.1092179616292317,
1819,1819,7341,2021-09-21 15:19:01.337,-0.2332274119059245,
1820,1820,7345,2021-09-21 15:19:01.341,-0.2638562520345052,
1821,1821,7349,2021-09-21 15:19:01.345,-0.1193777720133463,
1822,1822,7353,2021-09-21 15:19:01.349,-0.373223622639974,
1823,1823,7357,2021-09-21 15:19:01.353,-0.1102638244628906,
1824,1824,7361,2021-09-21 15:19:01.357,-0.2347215016682943,
1825,1825,7365,2021-09-21 15:19:01.361,-0.2641550699869792,
1826,1826,7369,2021-09-21 15:19:01.365,-0.128790537516276,
1827,1827,7373,2021-09-21 15:19:01.369,-0.3763612111409505,
1828,1828,7377,2021-09-21 15:19:01.373,-0.1101144154866536,
1829,1829,7381,2021-09-21 15:19:01.377,-0.2266534169514974,
1830,1830,7385,2021-09-21 15:19:01.381,-0.2504094441731771,
1831,1831,7389,2021-09-21 15:19:01.385,-0.100552241007487,
1832,1832,7393,2021-09-21 15:19:01.389,-0.358730951944987,
1833,1833,7397,2021-09-21 15:19:01.393,-0.1183319091796875,
1834,1834,7401,2021-09-21 15:19:01.397,-0.2556387583414714,
1835,1835,7405,2021-09-21 15:19:01.401,-0.2717749277750651,
1836,1836,7409,2021-09-21 15:19:01.405,-0.1139990488688151,
1837,1837,7413,2021-09-21 15:19:01.409,-0.3699366251627604,
1838,1838,7417,2021-09-21 15:19:01.413,-0.1168378194173177,
1839,1839,7421,2021-09-21 15:19:01.417,-0.243536631266276,
1840,1840,7425,2021-09-21 15:19:01.421,-0.2675914764404297,
1841,1841,7429,2021-09-21 15:19:01.425,-0.1128037770589192,
1842,1842,7433,2021-09-21 15:19:01.429,-0.3549957275390625,
1843,1843,7437,2021-09-21 15:19:01.433,-0.0935300191243489,
1844,1844,7441,2021-09-21 15:19:01.437,-0.222021738688151,
1845,1845,7445,2021-09-21 15:19:01.441,-0.2451801300048828,
1846,1846,7449,2021-09-21 15:19:01.445,-0.1024945576985677,
1847,1847,7453,2021-09-21 15:19:01.449,-0.3729248046875,
1848,1848,7457,2021-09-21 15:19:01.453,-0.1416397094726562,
1849,1849,7461,2021-09-21 15:19:01.457,-0.2619139353434245,
1850,1850,7465,2021-09-21 15:19:01.461,-0.2696832021077474,
1851,1851,7469,2021-09-21 15:19:01.465,-0.1168378194173177,
1852,1852,7473,2021-09-21 15:19:01.469,-0.3759129842122396,
1853,1853,7477,2021-09-21 15:19:01.473,-0.1314798990885416,
1854,1854,7481,2021-09-21 15:19:01.477,-0.2592245737711589,
1855,1855,7485,2021-09-21 15:19:01.481,-0.2671432495117188,
1856,1856,7489,2021-09-21 15:19:01.485,-0.1048851013183593,
1857,1857,7493,2021-09-21 15:19:01.489,-0.3548463185628255,
1858,1858,7497,2021-09-21 15:19:01.493,-0.1041380564371745,
1859,1859,7501,2021-09-21 15:19:01.497,-0.243686040242513,
1860,1860,7505,2021-09-21 15:19:01.501,-0.2829806009928385,
1861,1861,7509,2021-09-21 15:19:01.505,-0.1546382904052734,
1862,1862,7513,2021-09-21 15:19:01.509,-0.3811422983805339,
1863,1863,7517,2021-09-21 15:19:01.513,-0.0455697377522786,
1864,1864,7521,2021-09-21 15:19:01.517,-0.0575224558512369,
1865,1865,7525,2021-09-21 15:19:01.521,0.0418345133463541,
1866,1866,7529,2021-09-21 15:19:01.525,0.2696832021077474,
1867,1867,7533,2021-09-21 15:19:01.529,0.0152397155761718,
1868,1868,7537,2021-09-21 15:19:01.533,0.1023451487223307,
1869,1869,7541,2021-09-21 15:19:01.537,-0.287164052327474,
1870,1870,7545,2021-09-21 15:19:01.541,-0.5977853139241537,
1871,1871,7549,2021-09-21 15:19:01.545,-0.6774202982584636,
1872,1872,7553,2021-09-21 15:19:01.549,-1.0116481781005862,
1873,1873,7557,2021-09-21 15:19:01.553,-0.7322533925374349,
1874,1874,7561,2021-09-21 15:19:01.557,-0.6511243184407552,
1875,1875,7565,2021-09-21 15:19:01.561,-0.4364236195882162,
1876,1876,7569,2021-09-21 15:19:01.565,-0.0733598073323567,
1877,1877,7573,2021-09-21 15:19:01.569,-0.1943810780843099,
1878,1878,7577,2021-09-21 15:19:01.573,0.0838184356689453,
1879,1879,7581,2021-09-21 15:19:01.577,-0.0404898325602213,
1880,1880,7585,2021-09-21 15:19:01.581,-0.0890477498372395,
1881,1881,7589,2021-09-21 15:19:01.585,0.0198713938395182,
1882,1882,7593,2021-09-21 15:19:01.589,-0.2466742197672526,
1883,1883,7597,2021-09-21 15:19:01.593,-0.0032869974772135,
1884,1884,7601,2021-09-21 15:19:01.597,-0.1186307271321614,
1885,1885,7605,2021-09-21 15:19:01.601,-0.1603158315022786,
1886,1886,7609,2021-09-21 15:19:01.605,-0.0458685557047526,
1887,1887,7613,2021-09-21 15:19:01.609,-0.322424570719401,
1888,1888,7617,2021-09-21 15:19:01.613,-0.1128037770589192,
1889,1889,7621,2021-09-21 15:19:01.617,-0.243536631266276,
1890,1890,7625,2021-09-21 15:19:01.621,-0.2542940775553385,
1891,1891,7629,2021-09-21 15:19:01.625,-0.1050345102945963,
1892,1892,7633,2021-09-21 15:19:01.629,-0.3475252787272135,
1893,1893,7637,2021-09-21 15:19:01.633,-0.0911394755045573,
1894,1894,7641,2021-09-21 15:19:01.637,-0.2281475067138672,
1895,1895,7645,2021-09-21 15:19:01.641,-0.2596728006998698,
1896,1896,7649,2021-09-21 15:19:01.645,-0.1169872283935547,
1897,1897,7653,2021-09-21 15:19:01.649,-0.3742694854736328,
1898,1898,7657,2021-09-21 15:19:01.653,-0.1295375823974609,
1899,1899,7661,2021-09-21 15:19:01.657,-0.2536964416503907,
1900,1900,7665,2021-09-21 15:19:01.661,-0.2744642893473307,
1901,1901,7669,2021-09-21 15:19:01.665,-0.1308822631835937,
1902,1902,7673,2021-09-21 15:19:01.669,-0.3839810689290365,
1903,1903,7677,2021-09-21 15:19:01.673,-0.1334222157796224,
1904,1904,7681,2021-09-21 15:19:01.677,-0.2620633443196615,
1905,1905,7685,2021-09-21 15:19:01.681,-0.4391129811604818,
1906,1906,7689,2021-09-21 15:19:01.685,-0.1517995198567708,
1907,1907,7693,2021-09-21 15:19:01.689,-0.3098742167154948,
1908,1908,7697,2021-09-21 15:19:01.693,-0.121469497680664,
1909,1909,7701,2021-09-21 15:19:01.697,-0.1095167795817057,
1910,1910,7705,2021-09-21 15:19:01.701,-0.294036865234375,
1911,1911,7709,2021-09-21 15:19:01.705,-0.0612576802571614,
1912,1912,7713,2021-09-21 15:19:01.709,-0.315850575764974,
1913,1913,7717,2021-09-21 15:19:01.713,-0.1815319061279297,
1914,1914,7721,2021-09-21 15:19:01.717,-0.1876576741536458,
1915,1915,7725,2021-09-21 15:19:01.721,-0.466156005859375,
1916,1916,7729,2021-09-21 15:19:01.725,-0.1637522379557291,
1917,1917,7733,2021-09-21 15:19:01.729,-0.2239640553792318,
1918,1918,7737,2021-09-21 15:19:01.733,-0.2136548360188802,
1919,1919,7741,2021-09-21 15:19:01.737,-0.0763479868570963,
1920,1920,7745,2021-09-21 15:19:01.741,-0.3575356801350912,
1921,1921,7749,2021-09-21 15:19:01.745,-0.1243082682291666,
1922,1922,7753,2021-09-21 15:19:01.749,-0.2556387583414714,
1923,1923,7757,2021-09-21 15:19:01.753,-0.2855205535888672,
1924,1924,7761,2021-09-21 15:19:01.757,-0.1255035400390625,
1925,1925,7765,2021-09-21 15:19:01.761,-0.3670978546142578,
1926,1926,7769,2021-09-21 15:19:01.765,-0.1080226898193359,
1927,1927,7773,2021-09-21 15:19:01.769,-0.2517541249593099,
1928,1928,7777,2021-09-21 15:19:01.773,-0.2916463216145833,
1929,1929,7781,2021-09-21 15:19:01.777,-0.1468690236409505,
1930,1930,7785,2021-09-21 15:19:01.781,-0.3857739766438802,
1931,1931,7789,2021-09-21 15:19:01.785,-0.1202742258707682,
1932,1932,7793,2021-09-21 15:19:01.789,-0.2442836761474609,
1933,1933,7797,2021-09-21 15:19:01.793,-0.2631092071533203,
1934,1934,7801,2021-09-21 15:19:01.797,-0.1137002309163411,
1935,1935,7805,2021-09-21 15:19:01.801,-0.3597768147786458,
1936,1936,7809,2021-09-21 15:19:01.805,-0.0974146525065104,
1937,1937,7813,2021-09-21 15:19:01.809,-0.2232170104980469,
1938,1938,7817,2021-09-21 15:19:01.813,-0.2554893493652344,
1939,1939,7821,2021-09-21 15:19:01.817,-0.1095167795817057,
1940,1940,7825,2021-09-21 15:19:01.821,-0.3533522288004557,
1941,1941,7829,2021-09-21 15:19:01.825,-0.1098155975341797,
1942,1942,7833,2021-09-21 15:19:01.829,-0.2247111002604166,
1943,1943,7837,2021-09-21 15:19:01.833,-0.2432378133138021,
1944,1944,7841,2021-09-21 15:19:01.837,-0.1089191436767578,
1945,1945,7845,2021-09-21 15:19:01.841,-0.3523063659667969,
1946,1946,7849,2021-09-21 15:19:01.845,-0.1098155975341797,
1947,1947,7853,2021-09-21 15:19:01.849,-0.2374108632405599,
1948,1948,7857,2021-09-21 15:19:01.853,-0.2577304840087891,
1949,1949,7861,2021-09-21 15:19:01.857,-0.1108614603678385,
1950,1950,7865,2021-09-21 15:19:01.861,-0.3560415903727214,
1951,1951,7869,2021-09-21 15:19:01.865,-0.106976826985677,
1952,1952,7873,2021-09-21 15:19:01.869,-0.2432378133138021,
1953,1953,7877,2021-09-21 15:19:01.873,-0.272970199584961,
1954,1954,7881,2021-09-21 15:19:01.877,-0.1247564951578776,
1955,1955,7885,2021-09-21 15:19:01.881,-0.3642590840657552,
1956,1956,7889,2021-09-21 15:19:01.885,-0.1101144154866536,
1957,1957,7893,2021-09-21 15:19:01.889,-0.24383544921875,
1958,1958,7897,2021-09-21 15:19:01.893,-0.272970199584961,
1959,1959,7901,2021-09-21 15:19:01.897,-0.1259517669677734,
1960,1960,7905,2021-09-21 15:19:01.901,-0.3670978546142578,
1961,1961,7909,2021-09-21 15:19:01.905,-0.1208718617757161,
1962,1962,7913,2021-09-21 15:19:01.909,-0.2460765838623047,
1963,1963,7917,2021-09-21 15:19:01.913,-0.2632586161295573,
1964,1964,7921,2021-09-21 15:19:01.917,-0.1181825002034505,
1965,1965,7925,2021-09-21 15:19:01.921,-0.365603764851888,
1966,1966,7929,2021-09-21 15:19:01.925,-0.1093673706054687,
1967,1967,7933,2021-09-21 15:19:01.929,-0.236962636311849,
1968,1968,7937,2021-09-21 15:19:01.933,-0.2596728006998698,
1969,1969,7941,2021-09-21 15:19:01.937,-0.1113096872965495,
1970,1970,7945,2021-09-21 15:19:01.941,-0.358432133992513,
1971,1971,7949,2021-09-21 15:19:01.945,-0.1081720987955729,
1972,1972,7953,2021-09-21 15:19:01.949,-0.2420425415039062,
1973,1973,7957,2021-09-21 15:19:01.953,-0.2635574340820313,
1974,1974,7961,2021-09-21 15:19:01.957,-0.1195271809895833,
1975,1975,7965,2021-09-21 15:19:01.961,-0.359029769897461,
1976,1976,7969,2021-09-21 15:19:01.965,-0.1098155975341797,
1977,1977,7973,2021-09-21 15:19:01.969,-0.2442836761474609,
1978,1978,7977,2021-09-21 15:19:01.973,-0.2678902943929037,
1979,1979,7981,2021-09-21 15:19:01.977,-0.1229635874430338,
1980,1980,7985,2021-09-21 15:19:01.981,-0.3681437174479167,
1981,1981,7989,2021-09-21 15:19:01.985,-0.1095167795817057,
1982,1982,7993,2021-09-21 15:19:01.989,-0.2423413594563802,
1983,1983,7997,2021-09-21 15:19:01.993,-0.272372563680013,
1984,1984,8001,2021-09-21 15:19:01.997,-0.1352151234944661,
1985,1985,8005,2021-09-21 15:19:02.001,-0.3774070739746094,
1986,1986,8009,2021-09-21 15:19:02.005,-0.1159413655598958,
1987,1987,8013,2021-09-21 15:19:02.009,-0.2399508158365885,
1988,1988,8017,2021-09-21 15:19:02.013,-0.2638562520345052,
1989,1989,8021,2021-09-21 15:19:02.017,-0.1222165425618489,
1990,1990,8025,2021-09-21 15:19:02.021,-0.3614203135172526,
1991,1991,8029,2021-09-21 15:19:02.025,-0.0915877024332682,
1992,1992,8033,2021-09-21 15:19:02.029,-0.2114137013753255,
1993,1993,8037,2021-09-21 15:19:02.033,-0.2405484517415365,
1994,1994,8041,2021-09-21 15:19:02.037,-0.1041380564371745,
1995,1995,8045,2021-09-21 15:19:02.041,-0.3990713755289714,
1996,1996,8049,2021-09-21 15:19:02.045,-0.2463754018147786,
1997,1997,8053,2021-09-21 15:19:02.049,-0.1946798960367838,
1998,1998,8057,2021-09-21 15:19:02.053,-0.3124141693115235,
1999,1999,8061,2021-09-21 15:19:02.057,-0.0549825032552083,
2000,2000,8065,2021-09-21 15:19:02.061,-0.2741654713948568,
2001,2001,8069,2021-09-21 15:19:02.065,-0.1456737518310547,
2002,2002,8073,2021-09-21 15:19:02.069,-0.1621087392171224,
2003,2003,8077,2021-09-21 15:19:02.073,-0.3327337900797526,
2004,2004,8081,2021-09-21 15:19:02.077,-0.0851631164550781,
2005,2005,8085,2021-09-21 15:19:02.081,-0.3095753987630208,
2006,2006,8089,2021-09-21 15:19:02.085,-0.1643498738606771,
2007,2007,8093,2021-09-21 15:19:02.089,-0.1640510559082031,
2008,2008,8097,2021-09-21 15:19:02.093,-0.3363196055094401,
2009,2009,8101,2021-09-21 15:19:02.097,-0.1116085052490234,
2010,2010,8105,2021-09-21 15:19:02.101,-0.3670978546142578,
2011,2011,8109,2021-09-21 15:19:02.105,-0.2326297760009766,
2012,2012,8113,2021-09-21 15:19:02.109,-0.1822789510091146,
2013,2013,8117,2021-09-21 15:19:02.113,-0.2423413594563802,
2014,2014,8121,2021-09-21 15:19:02.117,0.1296869913736979,
2015,2015,8125,2021-09-21 15:19:02.121,0.0318241119384765,
2016,2016,8129,2021-09-21 15:19:02.125,0.2236652374267578,
2017,2017,8133,2021-09-21 15:19:02.129,0.1704756418863932,
2018,2018,8137,2021-09-21 15:19:02.133,-0.222021738688151,
2019,2019,8141,2021-09-21 15:19:02.137,-0.2932898203531901,
2020,2020,8145,2021-09-21 15:19:02.141,-0.7719961802164714,
2021,2021,8149,2021-09-21 15:19:02.145,-0.811290740966797,
2022,2022,8153,2021-09-21 15:19:02.149,-0.8332538604736329,
2023,2023,8157,2021-09-21 15:19:02.153,-0.8715025583902996,
2024,2024,8161,2021-09-21 15:19:02.157,-0.4098288218180339,
2025,2025,8165,2021-09-21 15:19:02.161,-0.3750165303548177,
2026,2026,8169,2021-09-21 15:19:02.165,-0.0478108723958333,
2027,2027,8173,2021-09-21 15:19:02.169,0.0449721018473307,
2028,2028,8177,2021-09-21 15:19:02.173,-0.1223659515380859,
2029,2029,8181,2021-09-21 15:19:02.177,0.085910161336263,
2030,2030,8185,2021-09-21 15:19:02.181,-0.1661427815755208,
2031,2031,8189,2021-09-21 15:19:02.185,-0.0434780120849609,
2032,2032,8193,2021-09-21 15:19:02.189,-0.0537872314453125,
2033,2033,8197,2021-09-21 15:19:02.193,-0.2357673645019531,
2034,2034,8201,2021-09-21 15:19:02.197,-0.0053787231445312,
2035,2035,8205,2021-09-21 15:19:02.201,-0.244134267171224,
2036,2036,8209,2021-09-21 15:19:02.205,-0.1084709167480468,
2037,2037,8213,2021-09-21 15:19:02.209,-0.1222165425618489,
2038,2038,8217,2021-09-21 15:19:02.213,-0.3179423014322917,
2039,2039,8221,2021-09-21 15:19:02.217,-0.0987593332926432,
2040,2040,8225,2021-09-21 15:19:02.221,-0.3249645233154297,
2041,2041,8229,2021-09-21 15:19:02.225,-0.1694297790527344,
2042,2042,8233,2021-09-21 15:19:02.229,-0.1625569661458333,
2043,2043,8237,2021-09-21 15:19:02.233,-0.337365468343099,
2044,2044,8241,2021-09-21 15:19:02.237,-0.0941276550292968,
